Index,Parent,CB
78258.0,0.0,1.0
78259.0,78258.0,0.0
78283.0,78259.0,1.0
78284.0,78283.0,0.0
78289.0,78283.0,0.0
78362.0,78289.0,0.0
78407.0,78362.0,0.0
78417.0,78407.0,0.0
78473.0,78417.0,0.0
78718.0,78362.0,0.0
78735.0,78283.0,0.0
78747.0,78735.0,0.0
78847.0,78735.0,0.0
78851.0,78847.0,0.0
78863.0,78847.0,0.0
79235.0,78847.0,0.0
79297.0,78289.0,0.0
79343.0,78735.0,0.0
79715.0,78847.0,0.0
79746.0,79297.0,1.0
79759.0,79746.0,1.0
79760.0,79759.0,1.0
79761.0,79760.0,0.0
79826.0,78847.0,0.0
79880.0,78747.0,0.0
79896.0,78259.0,0.0
79966.0,79759.0,0.0
79969.0,79966.0,0.0
79993.0,79966.0,1.0
79995.0,79993.0,0.0
80093.0,79966.0,0.0
80098.0,80093.0,0.0
81754.0,78847.0,0.0
82889.0,78407.0,0.0
83382.0,82889.0,0.0
83542.0,78747.0,0.0
84051.0,83542.0,0.0
84260.0,82889.0,0.0
84342.0,78847.0,0.0
84506.0,84051.0,0.0
84616.0,78259.0,1.0
84617.0,84616.0,0.0
84660.0,83542.0,0.0
84889.0,84660.0,1.0
84966.0,84889.0,0.0
85013.0,84966.0,1.0
85017.0,84966.0,0.0
85085.0,80098.0,0.0
85094.0,82889.0,0.0
85162.0,78847.0,0.0
85169.0,85162.0,0.0
85222.0,85162.0,0.0
85298.0,82889.0,0.0
85395.0,85162.0,0.0
85553.0,85085.0,0.0
85582.0,82889.0,0.0
85609.0,85582.0,1.0
85610.0,85609.0,1.0
85617.0,85609.0,0.0
85624.0,85582.0,0.0
85758.0,85395.0,0.0
85856.0,85395.0,0.0
85875.0,85582.0,0.0
86086.0,79297.0,0.0
86140.0,78473.0,0.0
86310.0,85169.0,0.0
86461.0,85582.0,0.0
86503.0,86461.0,1.0
86505.0,86503.0,0.0
86577.0,86086.0,1.0
86690.0,85298.0,1.0
86722.0,85017.0,0.0
86835.0,86690.0,0.0
86872.0,85395.0,0.0
86936.0,86461.0,0.0
87010.0,86086.0,0.0
87357.0,86310.0,0.0
87380.0,87357.0,0.0
87445.0,86835.0,0.0
87461.0,85094.0,0.0
87568.0,87445.0,0.0
87614.0,83382.0,0.0
87799.0,85013.0,0.0
87843.0,78283.0,0.0
87968.0,87380.0,0.0
87999.0,87968.0,0.0
88147.0,87357.0,0.0
88304.0,87799.0,0.0
88382.0,88304.0,0.0
88390.0,82889.0,0.0
88399.0,88304.0,0.0
88719.0,88304.0,0.0
88729.0,88390.0,1.0
88738.0,88729.0,1.0
88749.0,88729.0,0.0
88774.0,88304.0,0.0
88818.0,82889.0,1.0
88819.0,88818.0,0.0
88831.0,88819.0,1.0
88861.0,88729.0,0.0
88891.0,88819.0,0.0
88898.0,88891.0,0.0
88908.0,88898.0,0.0
88967.0,88382.0,0.0
89009.0,88147.0,0.0
89021.0,85222.0,0.0
89039.0,85395.0,0.0
89043.0,89039.0,0.0
89050.0,88729.0,0.0
89105.0,88304.0,0.0
89111.0,89105.0,1.0
89112.0,89111.0,1.0
89123.0,89111.0,1.0
89125.0,89123.0,1.0
89132.0,89123.0,0.0
89172.0,88819.0,0.0
89264.0,88390.0,1.0
89267.0,89264.0,1.0
89270.0,89264.0,1.0
89271.0,89264.0,1.0
89272.0,89271.0,0.0
89274.0,85395.0,1.0
89284.0,89267.0,1.0
89297.0,89284.0,1.0
89300.0,89270.0,1.0
89304.0,89300.0,1.0
89305.0,89300.0,1.0
89306.0,89305.0,1.0
89307.0,89300.0,0.0
89310.0,89300.0,1.0
89314.0,89310.0,1.0
89317.0,89310.0,0.0
89320.0,89300.0,1.0
89332.0,89306.0,0.0
89335.0,89332.0,1.0
89336.0,89272.0,1.0
89338.0,89336.0,1.0
89339.0,89336.0,1.0
89341.0,89336.0,1.0
89342.0,89339.0,1.0
89345.0,89336.0,1.0
89346.0,89300.0,1.0
89348.0,89336.0,1.0
89349.0,89346.0,1.0
89351.0,89348.0,1.0
89353.0,89336.0,1.0
89357.0,89264.0,1.0
89359.0,89357.0,1.0
89364.0,89357.0,1.0
89365.0,89364.0,1.0
89367.0,89364.0,1.0
89369.0,89364.0,1.0
89372.0,89364.0,1.0
89381.0,89339.0,0.0
89382.0,89381.0,1.0
89388.0,89364.0,1.0
89396.0,89364.0,1.0
89398.0,89348.0,1.0
89400.0,89388.0,0.0
89401.0,89400.0,1.0
89404.0,89369.0,1.0
89418.0,89336.0,1.0
89419.0,89418.0,1.0
89421.0,89364.0,1.0
89428.0,89300.0,1.0
89437.0,89336.0,1.0
89438.0,89437.0,1.0
89450.0,89437.0,1.0
89464.0,89437.0,1.0
89465.0,89421.0,0.0
89481.0,89364.0,1.0
89496.0,89364.0,1.0
89539.0,89364.0,1.0
89541.0,89336.0,1.0
89543.0,89541.0,1.0
89561.0,89450.0,1.0
89661.0,89561.0,0.0
89700.0,88304.0,1.0
89740.0,89338.0,1.0
89741.0,89740.0,1.0
89742.0,89741.0,0.0
89762.0,89310.0,0.0
89766.0,89762.0,1.0
89769.0,89741.0,0.0
89846.0,89043.0,1.0
89848.0,89846.0,0.0
89866.0,89848.0,1.0
89877.0,89437.0,1.0
89891.0,89438.0,1.0
89892.0,89891.0,1.0
89893.0,89892.0,1.0
89944.0,89893.0,0.0
89991.0,89364.0,1.0
89994.0,89465.0,0.0
90001.0,89994.0,0.0
90046.0,89866.0,0.0
90145.0,89364.0,1.0
90146.0,90145.0,0.0
90247.0,89401.0,0.0
90252.0,89364.0,0.0
90271.0,89039.0,1.0
90274.0,89364.0,0.0
90298.0,89991.0,1.0
90307.0,90252.0,1.0
90308.0,90307.0,1.0
90313.0,90308.0,0.0
90371.0,90308.0,0.0
90447.0,90247.0,0.0
90460.0,90447.0,0.0
90466.0,90308.0,0.0
90472.0,90447.0,1.0
90498.0,90313.0,0.0
90583.0,89125.0,0.0
90669.0,90583.0,0.0
90786.0,90146.0,0.0
90816.0,90583.0,0.0
90878.0,90298.0,0.0
90938.0,90583.0,0.0
91098.0,90583.0,0.0
91135.0,90298.0,1.0
91136.0,91135.0,0.0
91153.0,89401.0,1.0
91155.0,91153.0,0.0
91283.0,89364.0,0.0
91286.0,91283.0,0.0
91319.0,89364.0,1.0
91327.0,91319.0,1.0
91334.0,90583.0,0.0
91426.0,90583.0,0.0
91447.0,91426.0,0.0
91565.0,91286.0,1.0
91568.0,91565.0,0.0
91664.0,91568.0,1.0
91680.0,89496.0,0.0
91712.0,91680.0,0.0
91734.0,91680.0,0.0
91850.0,91568.0,0.0
91893.0,91136.0,0.0
91902.0,91680.0,0.0
91914.0,91850.0,1.0
91915.0,91914.0,0.0
91969.0,90583.0,0.0
92024.0,91734.0,0.0
92077.0,91283.0,0.0
92162.0,92077.0,0.0
92188.0,90583.0,0.0
92206.0,89401.0,0.0
92215.0,92188.0,0.0
92218.0,92215.0,0.0
92224.0,92188.0,0.0
92230.0,92224.0,1.0
92233.0,92230.0,0.0
92237.0,92224.0,1.0
92271.0,92162.0,0.0
92281.0,92230.0,1.0
92296.0,92230.0,0.0
92299.0,92271.0,1.0
92303.0,92077.0,1.0
92310.0,92218.0,1.0
92311.0,92310.0,1.0
92333.0,92303.0,0.0
92343.0,92311.0,1.0
92363.0,92343.0,1.0
92364.0,92363.0,1.0
92366.0,92364.0,1.0
92367.0,92366.0,0.0
92390.0,92206.0,0.0
92401.0,90583.0,0.0
92403.0,92401.0,0.0
92408.0,92333.0,1.0
92409.0,92408.0,1.0
92411.0,92409.0,1.0
92412.0,92409.0,1.0
92433.0,92311.0,1.0
92435.0,92433.0,1.0
92438.0,92433.0,1.0
92441.0,92433.0,1.0
92442.0,92441.0,1.0
92450.0,92441.0,1.0
92451.0,92442.0,1.0
92452.0,92451.0,1.0
92453.0,92452.0,1.0
92454.0,92390.0,1.0
92458.0,92408.0,1.0
92466.0,92453.0,0.0
92471.0,92466.0,0.0
92509.0,92188.0,1.0
92510.0,92509.0,1.0
92513.0,92509.0,1.0
92514.0,92509.0,1.0
92518.0,92513.0,1.0
92524.0,92408.0,1.0
92526.0,92509.0,1.0
92527.0,92526.0,1.0
92528.0,92509.0,1.0
92531.0,92527.0,1.0
92532.0,92526.0,0.0
92534.0,92526.0,1.0
92535.0,92534.0,1.0
92539.0,92513.0,1.0
92541.0,92539.0,1.0
92545.0,92539.0,1.0
92552.0,92545.0,1.0
92553.0,92513.0,1.0
92556.0,92553.0,1.0
92561.0,92553.0,1.0
92562.0,92556.0,1.0
92563.0,92562.0,1.0
92564.0,92563.0,1.0
92565.0,92562.0,1.0
92572.0,92564.0,1.0
92573.0,92572.0,1.0
92595.0,92441.0,1.0
92613.0,92573.0,0.0
92617.0,92613.0,1.0
92618.0,92513.0,1.0
92622.0,92510.0,0.0
92623.0,92622.0,0.0
92626.0,92408.0,1.0
92684.0,92539.0,1.0
92685.0,92684.0,1.0
92686.0,92684.0,1.0
92689.0,92684.0,1.0
92690.0,92573.0,1.0
92691.0,92684.0,1.0
92692.0,92684.0,1.0
92694.0,92684.0,1.0
92695.0,92684.0,1.0
92697.0,92691.0,1.0
92704.0,92684.0,0.0
92716.0,91680.0,1.0
92722.0,92454.0,1.0
92724.0,92722.0,1.0
92728.0,92722.0,0.0
92759.0,92728.0,0.0
92791.0,92728.0,0.0
92800.0,92728.0,0.0
92810.0,92728.0,1.0
92822.0,92728.0,1.0
92824.0,92408.0,1.0
92842.0,92728.0,0.0
92848.0,92728.0,0.0
92859.0,92728.0,0.0
92881.0,92728.0,0.0
92889.0,92466.0,1.0
92891.0,92889.0,0.0
92909.0,92408.0,1.0
92911.0,92408.0,1.0
92912.0,92911.0,1.0
92913.0,92912.0,1.0
92914.0,92912.0,1.0
92916.0,92911.0,1.0
92922.0,92911.0,1.0
92923.0,92922.0,0.0
92945.0,92916.0,1.0
92946.0,92945.0,1.0
92952.0,92945.0,1.0
92953.0,92945.0,0.0
92956.0,92945.0,1.0
92957.0,92945.0,1.0
92967.0,92945.0,1.0
92970.0,92945.0,0.0
93010.0,92945.0,1.0
93063.0,92945.0,1.0
93074.0,93063.0,0.0
93082.0,92859.0,0.0
93083.0,93082.0,1.0
93088.0,93063.0,1.0
93089.0,92945.0,1.0
93129.0,92945.0,1.0
93147.0,92945.0,1.0
93153.0,93147.0,1.0
93162.0,93147.0,1.0
93164.0,93147.0,1.0
93207.0,93147.0,1.0
93264.0,92916.0,1.0
93265.0,93264.0,0.0
93279.0,92728.0,1.0
93289.0,93147.0,0.0
93320.0,92945.0,1.0
93342.0,92524.0,0.0
93411.0,92945.0,0.0
93412.0,93411.0,1.0
93417.0,92911.0,1.0
93419.0,93417.0,1.0
93420.0,93419.0,1.0
93421.0,93417.0,1.0
93425.0,93417.0,1.0
93434.0,93417.0,1.0
93440.0,93434.0,1.0
93442.0,93440.0,1.0
93444.0,93440.0,1.0
93449.0,93442.0,1.0
93450.0,93449.0,1.0
93451.0,93417.0,1.0
93453.0,93440.0,1.0
93455.0,93453.0,1.0
93458.0,93417.0,1.0
93459.0,93440.0,1.0
93460.0,93417.0,1.0
93464.0,93444.0,1.0
93467.0,93342.0,1.0
93469.0,93464.0,1.0
93470.0,93469.0,1.0
93471.0,93470.0,1.0
93472.0,93469.0,1.0
93474.0,93472.0,1.0
93475.0,93417.0,1.0
93477.0,93470.0,1.0
93478.0,93470.0,1.0
93480.0,93478.0,1.0
93481.0,93480.0,1.0
93482.0,93480.0,1.0
93483.0,93475.0,1.0
93487.0,93417.0,1.0
93488.0,93440.0,1.0
93489.0,93488.0,1.0
93490.0,93488.0,1.0
93491.0,93474.0,1.0
93500.0,93417.0,1.0
93506.0,93489.0,1.0
93507.0,93506.0,1.0
93508.0,93507.0,1.0
93513.0,93508.0,1.0
93520.0,93449.0,1.0
93521.0,93520.0,1.0
93522.0,93491.0,1.0
93524.0,93522.0,1.0
93535.0,93487.0,1.0
93536.0,93491.0,0.0
93561.0,93279.0,0.0
93567.0,93561.0,1.0
93572.0,93417.0,1.0
93583.0,93524.0,1.0
93589.0,93521.0,1.0
93594.0,93417.0,1.0
93599.0,93589.0,1.0
93620.0,93481.0,1.0
93628.0,93480.0,1.0
93634.0,93535.0,1.0
93638.0,93471.0,1.0
93639.0,93638.0,1.0
93640.0,92914.0,1.0
93680.0,93440.0,1.0
93683.0,93520.0,1.0
93684.0,93417.0,1.0
93688.0,93684.0,1.0
93690.0,93688.0,1.0
93691.0,93690.0,1.0
93692.0,93690.0,1.0
93693.0,93690.0,1.0
93695.0,93690.0,1.0
93698.0,93690.0,1.0
93700.0,93690.0,1.0
93701.0,93690.0,1.0
93707.0,93690.0,1.0
93709.0,93707.0,1.0
93710.0,93709.0,1.0
93712.0,93690.0,1.0
93714.0,93690.0,1.0
93717.0,93690.0,1.0
93721.0,93690.0,1.0
93723.0,93709.0,1.0
93726.0,93690.0,1.0
93730.0,93726.0,1.0
93733.0,93488.0,1.0
93736.0,93726.0,1.0
93737.0,93736.0,1.0
93739.0,93733.0,1.0
93742.0,93730.0,1.0
93744.0,93742.0,1.0
93748.0,93690.0,1.0
93750.0,93726.0,1.0
93759.0,93690.0,1.0
93762.0,93690.0,1.0
93767.0,93522.0,1.0
93768.0,93767.0,1.0
93772.0,93768.0,1.0
93775.0,93690.0,1.0
93778.0,93775.0,1.0
93779.0,93775.0,1.0
93791.0,93480.0,1.0
93801.0,93730.0,1.0
93803.0,93742.0,1.0
93805.0,93458.0,1.0
93815.0,93508.0,0.0
93819.0,93690.0,1.0
93824.0,93742.0,1.0
93825.0,93700.0,1.0
93843.0,93768.0,1.0
93844.0,93843.0,1.0
93845.0,93844.0,1.0
93865.0,93692.0,1.0
93867.0,93522.0,1.0
6.0,93762.0,1.0
8.0,6.0,1.0
19.0,93690.0,1.0
29.0,19.0,1.0
35.0,93824.0,1.0
43.0,93695.0,1.0
44.0,93865.0,1.0
45.0,29.0,1.0
49.0,29.0,1.0
51.0,49.0,1.0
52.0,51.0,1.0
53.0,51.0,1.0
56.0,53.0,1.0
61.0,53.0,1.0
83.0,49.0,1.0
85.0,83.0,1.0
86.0,85.0,1.0
87.0,85.0,1.0
90.0,85.0,1.0
91.0,85.0,1.0
93.0,85.0,1.0
94.0,93.0,1.0
95.0,94.0,1.0
99.0,85.0,1.0
103.0,93742.0,0.0
114.0,85.0,1.0
123.0,85.0,1.0
124.0,85.0,1.0
127.0,53.0,0.0
133.0,85.0,1.0
137.0,93690.0,0.0
138.0,133.0,1.0
145.0,93733.0,1.0
150.0,61.0,1.0
158.0,85.0,1.0
159.0,158.0,1.0
166.0,93815.0,1.0
167.0,166.0,1.0
168.0,167.0,1.0
172.0,159.0,1.0
173.0,172.0,0.0
188.0,93690.0,1.0
190.0,188.0,1.0
191.0,190.0,1.0
193.0,93701.0,1.0
196.0,145.0,1.0
212.0,173.0,0.0
220.0,188.0,1.0
223.0,212.0,0.0
226.0,93690.0,0.0
232.0,85.0,1.0
245.0,173.0,1.0
274.0,166.0,1.0
277.0,274.0,0.0
280.0,277.0,1.0
285.0,277.0,1.0
289.0,277.0,1.0
317.0,277.0,0.0
331.0,277.0,1.0
332.0,277.0,1.0
347.0,332.0,1.0
349.0,93750.0,1.0
351.0,349.0,1.0
354.0,349.0,0.0
355.0,354.0,1.0
358.0,332.0,1.0
367.0,93717.0,0.0
378.0,277.0,1.0
377.0,378.0,1.0
383.0,85.0,1.0
394.0,347.0,1.0
423.0,332.0,1.0
444.0,93775.0,1.0
449.0,444.0,0.0
460.0,444.0,0.0
468.0,444.0,0.0
498.0,377.0,1.0
506.0,190.0,1.0
517.0,394.0,1.0
518.0,517.0,1.0
519.0,517.0,1.0
520.0,518.0,1.0
523.0,518.0,1.0
541.0,518.0,1.0
544.0,520.0,0.0
554.0,518.0,1.0
556.0,332.0,1.0
564.0,518.0,1.0
569.0,172.0,1.0
575.0,518.0,1.0
585.0,575.0,1.0
590.0,575.0,1.0
594.0,506.0,1.0
596.0,556.0,0.0
643.0,575.0,1.0
663.0,575.0,1.0
674.0,367.0,1.0
689.0,674.0,0.0
709.0,575.0,1.0
711.0,212.0,0.0
722.0,575.0,1.0
724.0,85.0,1.0
739.0,517.0,1.0
740.0,518.0,0.0
751.0,575.0,1.0
756.0,724.0,0.0
801.0,575.0,0.0
805.0,331.0,0.0
806.0,805.0,0.0
827.0,575.0,1.0
829.0,827.0,0.0
946.0,378.0,0.0
985.0,575.0,0.0
1021.0,377.0,0.0
1042.0,575.0,0.0
1049.0,751.0,1.0
1052.0,166.0,1.0
1066.0,1052.0,0.0
1087.0,575.0,1.0
1112.0,188.0,0.0
1164.0,575.0,0.0
1206.0,232.0,1.0
1214.0,575.0,0.0
1217.0,1214.0,1.0
1229.0,351.0,0.0
1250.0,1217.0,0.0
1284.0,377.0,0.0
1313.0,1021.0,0.0
1318.0,1313.0,0.0
1331.0,806.0,0.0
1335.0,1087.0,1.0
1346.0,1335.0,0.0
1384.0,1313.0,0.0
1416.0,985.0,0.0
1431.0,1331.0,0.0
1454.0,575.0,0.0
1517.0,575.0,0.0
1520.0,1517.0,0.0
1528.0,1416.0,1.0
1529.0,1528.0,1.0
1530.0,1529.0,1.0
1537.0,1529.0,1.0
1539.0,1529.0,0.0
1540.0,1517.0,1.0
1586.0,1529.0,0.0
1593.0,377.0,1.0
1600.0,1593.0,1.0
1601.0,1600.0,0.0
1605.0,1600.0,0.0
1635.0,1517.0,1.0
1663.0,277.0,1.0
1670.0,277.0,1.0
1680.0,1384.0,1.0
1704.0,1670.0,0.0
1719.0,1600.0,1.0
1723.0,711.0,0.0
1729.0,1719.0,0.0
1760.0,1723.0,0.0
1804.0,1600.0,0.0
1871.0,1804.0,0.0
1877.0,1871.0,0.0
1892.0,1529.0,0.0
1900.0,575.0,0.0
1929.0,1871.0,0.0
1966.0,801.0,0.0
2008.0,1600.0,0.0
2072.0,1250.0,0.0
2095.0,2072.0,0.0
2102.0,1966.0,0.0
2103.0,1164.0,0.0
2142.0,1600.0,0.0
2149.0,1966.0,0.0
2194.0,1529.0,0.0
2213.0,575.0,1.0
2214.0,2213.0,0.0
2226.0,575.0,0.0
2276.0,575.0,0.0
2279.0,2276.0,0.0
2293.0,2149.0,0.0
2308.0,1331.0,0.0
2494.0,1871.0,0.0
2516.0,575.0,1.0
2653.0,1601.0,0.0
2947.0,2072.0,0.0
2989.0,2194.0,0.0
3005.0,2947.0,0.0
4025.0,3005.0,0.0
4082.0,2279.0,0.0
4101.0,4082.0,0.0
4133.0,4101.0,0.0
4157.0,4101.0,0.0
4186.0,1635.0,0.0
4318.0,4133.0,0.0
4348.0,2072.0,0.0
4363.0,4025.0,0.0
4369.0,2308.0,0.0
4395.0,4318.0,0.0
4544.0,1600.0,0.0
4576.0,4025.0,0.0
4898.0,2072.0,0.0
4941.0,2226.0,0.0
5011.0,4898.0,0.0
5094.0,5011.0,0.0
5115.0,5094.0,0.0
5152.0,5094.0,0.0
5238.0,1663.0,1.0
5242.0,5238.0,0.0
5276.0,1892.0,0.0
5281.0,5276.0,0.0
5296.0,4369.0,1.0
5295.0,5296.0,1.0
5309.0,5296.0,0.0
5361.0,4395.0,0.0
5377.0,2653.0,0.0
5383.0,5377.0,0.0
5391.0,2072.0,1.0
5427.0,1586.0,0.0
5486.0,5309.0,0.0
5646.0,2989.0,0.0
5694.0,1929.0,0.0
5913.0,1164.0,0.0
5943.0,4369.0,0.0
5993.0,2213.0,0.0
6049.0,5646.0,0.0
6080.0,1892.0,0.0
6303.0,5993.0,0.0
6382.0,1600.0,1.0
6383.0,6382.0,1.0
6386.0,6382.0,0.0
6448.0,5391.0,0.0
6458.0,1605.0,1.0
6459.0,6458.0,0.0
6527.0,5943.0,0.0
6530.0,6458.0,0.0
6546.0,6530.0,1.0
6547.0,6546.0,0.0
6577.0,5309.0,0.0
6708.0,6458.0,0.0
6719.0,6708.0,0.0
6765.0,6458.0,0.0
6787.0,5993.0,0.0
6799.0,5993.0,1.0
6802.0,6787.0,0.0
6818.0,4157.0,0.0
6850.0,2516.0,0.0
6854.0,6850.0,0.0
6857.0,6850.0,0.0
7014.0,6448.0,0.0
7025.0,5486.0,0.0
7041.0,6857.0,0.0
7069.0,6850.0,0.0
7078.0,7025.0,0.0
7091.0,7041.0,0.0
7411.0,7014.0,0.0
7423.0,6765.0,0.0
7480.0,5391.0,0.0
7558.0,6547.0,1.0
7562.0,7558.0,0.0
7575.0,7558.0,0.0
7578.0,7575.0,0.0
7605.0,6802.0,0.0
7668.0,2293.0,0.0
7690.0,6080.0,0.0
7693.0,6530.0,0.0
7762.0,7605.0,1.0
7809.0,5391.0,0.0
7885.0,4363.0,0.0
7937.0,6850.0,0.0
7945.0,4318.0,0.0
8052.0,5295.0,0.0
8054.0,8052.0,0.0
8081.0,8052.0,0.0
8126.0,8052.0,0.0
8145.0,5993.0,0.0
8182.0,8052.0,0.0
8196.0,7078.0,0.0
8221.0,6854.0,0.0
8244.0,6765.0,0.0
8258.0,8244.0,0.0
8341.0,8054.0,0.0
8426.0,8126.0,0.0
8740.0,8052.0,1.0
8754.0,8740.0,0.0
8789.0,5993.0,1.0
8836.0,7025.0,0.0
8899.0,8754.0,0.0
8911.0,7091.0,1.0
8912.0,8911.0,0.0
8925.0,8081.0,0.0
8955.0,7945.0,0.0
8964.0,8740.0,0.0
9046.0,8925.0,0.0
9168.0,5094.0,0.0
9182.0,6850.0,0.0
9187.0,6382.0,1.0
9193.0,9187.0,0.0
9294.0,6708.0,0.0
9303.0,9046.0,0.0
9400.0,6708.0,0.0
9405.0,9193.0,0.0
9451.0,9168.0,0.0
9483.0,9400.0,0.0
9521.0,9483.0,1.0
9534.0,9521.0,1.0
9542.0,9534.0,0.0
9582.0,9303.0,1.0
9591.0,9582.0,0.0
9602.0,8244.0,0.0
9633.0,9168.0,0.0
9642.0,5913.0,0.0
9668.0,9642.0,0.0
10110.0,9642.0,0.0
10167.0,9168.0,0.0
10177.0,8955.0,0.0
10186.0,8426.0,0.0
10187.0,10177.0,1.0
10189.0,10187.0,1.0
10191.0,10187.0,1.0
10193.0,10187.0,1.0
10195.0,10193.0,1.0
10198.0,10187.0,1.0
10199.0,10191.0,1.0
10200.0,7690.0,1.0
10202.0,10198.0,0.0
10231.0,10187.0,1.0
10236.0,10187.0,0.0
10237.0,10200.0,1.0
10279.0,10236.0,0.0
10281.0,10279.0,0.0
10286.0,10281.0,1.0
10359.0,10187.0,0.0
10361.0,10359.0,1.0
10362.0,10361.0,1.0
10411.0,6850.0,1.0
10419.0,10411.0,1.0
10429.0,10411.0,0.0
10454.0,8052.0,1.0
10455.0,10454.0,1.0
10468.0,10455.0,0.0
10489.0,10411.0,0.0
10537.0,9294.0,1.0
10538.0,10537.0,1.0
10540.0,10537.0,1.0
10545.0,10537.0,1.0
10571.0,10281.0,1.0
10583.0,10537.0,0.0
10611.0,10411.0,0.0
10619.0,10411.0,0.0
10630.0,9534.0,1.0
10659.0,10630.0,0.0
10708.0,8911.0,0.0
10729.0,10187.0,0.0
10738.0,10187.0,0.0
10863.0,10286.0,1.0
10868.0,10863.0,0.0
10915.0,10571.0,0.0
10956.0,10411.0,0.0
10972.0,10915.0,1.0
10975.0,10972.0,0.0
10987.0,10975.0,1.0
11011.0,10975.0,1.0
11039.0,11011.0,0.0
11043.0,10630.0,1.0
11080.0,10191.0,0.0
11130.0,9668.0,0.0
11278.0,9534.0,0.0
11386.0,10915.0,0.0
11415.0,10186.0,0.0
11467.0,9451.0,0.0
11512.0,10915.0,0.0
11533.0,11512.0,0.0
11547.0,11043.0,0.0
11559.0,9642.0,0.0
11583.0,11533.0,1.0
11586.0,11583.0,0.0
11588.0,11547.0,0.0
11645.0,11547.0,1.0
11646.0,10630.0,1.0
11649.0,11646.0,0.0
11720.0,11645.0,0.0
11726.0,9668.0,1.0
11758.0,10199.0,0.0
11852.0,11583.0,1.0
11875.0,11720.0,0.0
11899.0,10537.0,0.0
11946.0,10187.0,0.0
11950.0,11467.0,0.0
12068.0,10187.0,0.0
12205.0,10708.0,0.0
12365.0,10231.0,0.0
12557.0,12365.0,0.0
12653.0,12557.0,0.0
12678.0,10187.0,0.0
12748.0,11950.0,0.0
12769.0,12748.0,0.0
12775.0,12769.0,0.0
12777.0,12769.0,0.0
12787.0,12068.0,0.0
12806.0,12787.0,0.0
12876.0,12365.0,0.0
12930.0,12205.0,0.0
12931.0,10545.0,0.0
12951.0,12678.0,0.0
12977.0,12557.0,0.0
13002.0,11039.0,0.0
13017.0,11415.0,0.0
13086.0,10187.0,1.0
13091.0,13086.0,0.0
13117.0,13086.0,0.0
13138.0,9642.0,1.0
13151.0,13086.0,0.0
13176.0,13151.0,0.0
13311.0,13176.0,0.0
13359.0,12769.0,0.0
13381.0,13002.0,1.0
13382.0,13381.0,1.0
13383.0,13381.0,0.0
13724.0,12876.0,0.0
13756.0,10972.0,0.0
14073.0,13756.0,0.0
14424.0,13756.0,0.0
14490.0,13756.0,1.0
15137.0,12068.0,0.0
15268.0,13756.0,0.0
15423.0,13756.0,1.0
15467.0,11583.0,0.0
15762.0,11946.0,0.0
15899.0,13756.0,1.0
15905.0,15899.0,0.0
16036.0,11646.0,0.0
17249.0,13756.0,1.0
17388.0,15899.0,0.0
17396.0,13756.0,1.0
17397.0,17396.0,1.0
17398.0,17396.0,1.0
17399.0,17398.0,1.0
17401.0,17398.0,0.0
17420.0,17396.0,1.0
17421.0,17396.0,1.0
17565.0,17396.0,0.0
17588.0,17396.0,0.0
17658.0,17396.0,0.0
17729.0,17396.0,0.0
17859.0,13756.0,1.0
17884.0,17565.0,0.0
17902.0,13756.0,1.0
17923.0,17396.0,0.0
17939.0,13756.0,0.0
17953.0,17396.0,0.0
17967.0,13117.0,0.0
17998.0,13756.0,0.0
18016.0,13756.0,0.0
18041.0,13756.0,0.0
18045.0,17967.0,1.0
18064.0,18045.0,0.0
18244.0,17396.0,1.0
18264.0,17396.0,0.0
18276.0,13756.0,0.0
18356.0,17396.0,0.0
18400.0,11583.0,0.0
18410.0,18400.0,0.0
18459.0,17658.0,1.0
18561.0,18410.0,1.0
18593.0,18561.0,0.0
18629.0,18276.0,1.0
18646.0,17967.0,1.0
18660.0,18561.0,1.0
18674.0,18561.0,0.0
18676.0,18674.0,0.0
18679.0,18646.0,1.0
18686.0,18674.0,0.0
18708.0,18593.0,1.0
18752.0,18561.0,0.0
18786.0,18646.0,0.0
18802.0,18561.0,0.0
18812.0,17396.0,0.0
18843.0,18786.0,0.0
18880.0,18786.0,0.0
18899.0,17396.0,0.0
18902.0,18843.0,0.0
18940.0,18041.0,0.0
19014.0,18843.0,1.0
19015.0,19014.0,0.0
19090.0,17967.0,0.0
19092.0,18041.0,0.0
19101.0,19092.0,0.0
19116.0,19092.0,0.0
19182.0,12068.0,0.0
19302.0,17396.0,0.0
19342.0,19116.0,0.0
19430.0,19090.0,0.0
19531.0,17396.0,0.0
19571.0,18459.0,0.0
19574.0,19092.0,0.0
19637.0,12769.0,0.0
19723.0,19571.0,0.0
19750.0,19302.0,1.0
19768.0,19574.0,0.0
19843.0,19531.0,0.0
19873.0,13756.0,0.0
19878.0,19750.0,0.0
19934.0,17859.0,0.0
20013.0,13756.0,0.0
20029.0,19934.0,0.0
20072.0,18561.0,0.0
20152.0,20072.0,0.0
20170.0,19934.0,0.0
20203.0,18561.0,0.0
20241.0,13756.0,0.0
20307.0,20241.0,0.0
20313.0,20307.0,0.0
20352.0,20241.0,0.0
20392.0,20241.0,0.0
20471.0,20352.0,0.0
20482.0,19014.0,1.0
20523.0,20072.0,0.0
20529.0,19531.0,0.0
20542.0,20392.0,0.0
20611.0,20529.0,0.0
20614.0,19531.0,0.0
20616.0,20614.0,0.0
20660.0,18561.0,1.0
20667.0,20660.0,0.0
20685.0,18802.0,1.0
20687.0,20660.0,0.0
20717.0,19182.0,0.0
20720.0,20352.0,0.0
20721.0,20660.0,0.0
20751.0,20611.0,1.0
20811.0,20660.0,0.0
20855.0,20529.0,0.0
20901.0,20811.0,0.0
20947.0,20471.0,0.0
20987.0,19574.0,1.0
21006.0,20660.0,0.0
21053.0,20811.0,0.0
21071.0,19014.0,0.0
21073.0,21071.0,0.0
21083.0,20685.0,0.0
21091.0,21053.0,0.0
21093.0,21073.0,1.0
21108.0,21071.0,1.0
21109.0,21108.0,0.0
21162.0,21083.0,0.0
21211.0,21073.0,0.0
21266.0,21073.0,0.0
21342.0,21211.0,1.0
21343.0,21342.0,0.0
21370.0,20616.0,0.0
21395.0,20947.0,0.0
21412.0,20614.0,0.0
21416.0,21412.0,0.0
21460.0,18264.0,0.0
21525.0,20482.0,0.0
21540.0,21342.0,0.0
21711.0,19873.0,0.0
21751.0,20392.0,0.0
21800.0,19878.0,0.0
21809.0,21412.0,0.0
21827.0,21800.0,0.0
21851.0,21711.0,0.0
21857.0,20529.0,0.0
21882.0,21460.0,0.0
21921.0,21540.0,0.0
22021.0,21800.0,0.0
22096.0,22021.0,1.0
22099.0,22096.0,0.0
22111.0,20542.0,0.0
22162.0,20529.0,0.0
22220.0,19090.0,0.0
22266.0,21412.0,0.0
22274.0,20660.0,0.0
22305.0,18786.0,0.0
22321.0,21851.0,0.0
22367.0,20170.0,0.0
22479.0,19116.0,0.0
22487.0,21073.0,0.0
22733.0,21827.0,0.0
22751.0,20855.0,0.0
22776.0,20542.0,0.0
22909.0,22367.0,0.0
22947.0,22321.0,0.0
22971.0,21460.0,0.0
22993.0,22947.0,0.0
23081.0,22993.0,1.0
23085.0,23081.0,1.0
23091.0,23081.0,1.0
23095.0,23081.0,0.0
23427.0,23081.0,0.0
23544.0,23427.0,1.0
23545.0,23544.0,1.0
23851.0,23544.0,1.0
23914.0,23544.0,0.0
24083.0,23544.0,1.0
24254.0,23544.0,1.0
24975.0,23427.0,0.0
24984.0,24975.0,0.0
24990.0,23544.0,0.0
25143.0,24984.0,0.0
25588.0,23081.0,0.0
25817.0,23544.0,0.0
26228.0,23544.0,0.0
26344.0,22162.0,0.0
26765.0,23081.0,0.0
27501.0,23544.0,0.0
28406.0,23081.0,0.0
28418.0,27501.0,0.0
28704.0,23427.0,0.0
28901.0,21412.0,0.0
28907.0,22021.0,1.0
28909.0,28907.0,0.0
28965.0,22111.0,1.0
28985.0,28909.0,1.0
28991.0,23081.0,1.0
29180.0,28965.0,0.0
29270.0,28704.0,1.0
29276.0,28965.0,1.0
29296.0,29270.0,1.0
29458.0,29270.0,1.0
29552.0,23081.0,0.0
29673.0,26344.0,0.0
29830.0,29270.0,0.0
30462.0,29270.0,0.0
30506.0,26228.0,1.0
30530.0,29673.0,1.0
30546.0,30530.0,1.0
30549.0,30530.0,0.0
30591.0,30549.0,0.0
30653.0,30549.0,1.0
30862.0,29270.0,1.0
30887.0,30862.0,1.0
30893.0,30549.0,1.0
31001.0,30893.0,1.0
31020.0,30893.0,1.0
31023.0,31020.0,1.0
31042.0,31020.0,0.0
31075.0,23085.0,1.0
31086.0,31001.0,1.0
31127.0,31075.0,1.0
31173.0,31086.0,1.0
31272.0,31075.0,1.0
31303.0,31020.0,1.0
31306.0,31303.0,1.0
31406.0,30862.0,1.0
31420.0,31306.0,1.0
31513.0,31303.0,1.0
31524.0,31513.0,1.0
31525.0,31420.0,0.0
31608.0,28406.0,1.0
31625.0,31524.0,1.0
31789.0,31001.0,0.0
31954.0,29270.0,1.0
31955.0,31954.0,1.0
31988.0,31955.0,0.0
31993.0,29270.0,1.0
31994.0,31955.0,1.0
32004.0,31994.0,1.0
32014.0,31954.0,1.0
32070.0,32014.0,0.0
32274.0,28965.0,0.0
32289.0,32274.0,0.0
32340.0,23081.0,1.0
32341.0,32340.0,0.0
32468.0,29270.0,0.0
32610.0,23081.0,0.0
32710.0,32468.0,1.0
32732.0,28991.0,1.0
32809.0,31955.0,0.0
32813.0,32468.0,1.0
32851.0,32468.0,0.0
32879.0,32710.0,1.0
32937.0,32851.0,0.0
33277.0,32274.0,0.0
33360.0,32468.0,0.0
33394.0,31955.0,1.0
33417.0,32468.0,1.0
33479.0,33417.0,0.0
33507.0,33394.0,0.0
33581.0,32468.0,0.0
33590.0,32809.0,1.0
33592.0,33581.0,1.0
33594.0,33592.0,1.0
33601.0,33594.0,0.0
33669.0,33394.0,1.0
33820.0,33394.0,1.0
33821.0,33820.0,0.0
33899.0,31303.0,1.0
33902.0,33899.0,1.0
33935.0,33821.0,0.0
34019.0,33360.0,1.0
34066.0,31994.0,0.0
34097.0,32732.0,1.0
34098.0,34097.0,0.0
34303.0,32879.0,1.0
34332.0,34019.0,0.0
34334.0,34332.0,0.0
34341.0,24984.0,0.0
34412.0,25588.0,0.0
34497.0,33507.0,1.0
34529.0,32468.0,1.0
34633.0,34497.0,0.0
34693.0,34497.0,1.0
34704.0,34019.0,1.0
34716.0,34704.0,1.0
34718.0,34716.0,1.0
34729.0,34704.0,0.0
34748.0,34098.0,0.0
34766.0,32468.0,0.0
34822.0,32341.0,1.0
34860.0,34704.0,1.0
34966.0,34716.0,0.0
34995.0,33394.0,1.0
34996.0,34966.0,0.0
35009.0,34996.0,1.0
35119.0,34716.0,0.0
35186.0,34303.0,1.0
35219.0,34704.0,1.0
35273.0,35219.0,1.0
35279.0,35273.0,0.0
35310.0,34497.0,1.0
35319.0,34704.0,1.0
35371.0,34704.0,1.0
35391.0,34098.0,1.0
35396.0,34704.0,1.0
35397.0,35391.0,1.0
35419.0,34704.0,1.0
35420.0,35419.0,1.0
35473.0,35119.0,0.0
35504.0,35397.0,0.0
35639.0,34704.0,1.0
35814.0,34704.0,0.0
35939.0,32851.0,1.0
36107.0,34716.0,0.0
36235.0,34704.0,0.0
36333.0,34704.0,0.0
36482.0,34303.0,0.0
36540.0,35939.0,1.0
36576.0,35419.0,0.0
36628.0,34704.0,0.0
36723.0,34704.0,0.0
36815.0,35009.0,0.0
36925.0,35186.0,1.0
36981.0,36925.0,1.0
36983.0,36981.0,1.0
37001.0,36981.0,0.0
37127.0,31608.0,0.0
37149.0,36235.0,0.0
37157.0,36628.0,1.0
37166.0,37157.0,0.0
37291.0,37149.0,1.0
37314.0,37291.0,0.0
37339.0,37291.0,1.0
37379.0,37291.0,1.0
37383.0,37291.0,0.0
37410.0,37379.0,1.0
37424.0,37379.0,0.0
37436.0,36628.0,0.0
37487.0,37127.0,0.0
37682.0,34704.0,0.0
38053.0,34704.0,0.0
38271.0,37682.0,0.0
38351.0,32341.0,1.0
38413.0,35939.0,1.0
38450.0,38413.0,1.0
38457.0,38450.0,0.0
38497.0,38457.0,0.0
38501.0,38497.0,0.0
38530.0,38501.0,1.0
38541.0,38530.0,0.0
38548.0,38457.0,1.0
38574.0,38530.0,1.0
38575.0,38574.0,0.0
38726.0,38548.0,1.0
38731.0,38726.0,0.0
38884.0,34341.0,0.0
38972.0,35504.0,0.0
39212.0,35397.0,0.0
39236.0,34704.0,0.0
39331.0,39212.0,0.0
39338.0,39331.0,0.0
39454.0,34822.0,0.0
39477.0,37410.0,0.0
39480.0,39331.0,0.0
39543.0,37487.0,0.0
39617.0,38972.0,0.0
39670.0,39617.0,0.0
39778.0,38497.0,0.0
39812.0,34497.0,0.0
39854.0,39812.0,0.0
39859.0,39331.0,0.0
39888.0,39236.0,0.0
39971.0,35939.0,0.0
40149.0,38972.0,0.0
40461.0,36540.0,0.0
40510.0,37166.0,1.0
40513.0,40510.0,1.0
40546.0,39971.0,0.0
40559.0,40513.0,0.0
40625.0,40513.0,0.0
40876.0,39854.0,0.0
40893.0,40546.0,0.0
40934.0,35639.0,0.0
40959.0,39854.0,0.0
41075.0,40513.0,0.0
41082.0,39778.0,0.0
41257.0,40893.0,0.0
41269.0,41082.0,1.0
41302.0,41257.0,0.0
41324.0,41257.0,1.0
41325.0,41324.0,1.0
41326.0,41325.0,1.0
41342.0,41326.0,1.0
41343.0,41342.0,0.0
41381.0,40513.0,0.0
41451.0,40513.0,0.0
41594.0,39859.0,0.0
41607.0,40513.0,0.0
41654.0,41257.0,0.0
41804.0,40959.0,0.0
41808.0,40149.0,0.0
41851.0,39212.0,0.0
41855.0,41257.0,0.0
41880.0,41855.0,1.0
41914.0,41880.0,1.0
41929.0,41914.0,1.0
41932.0,41914.0,1.0
41937.0,41932.0,1.0
41939.0,41932.0,0.0
41983.0,41594.0,1.0
42027.0,41932.0,0.0
42096.0,41343.0,0.0
42200.0,40876.0,0.0
42227.0,39778.0,0.0
42231.0,42227.0,0.0
42324.0,40513.0,0.0
42383.0,41983.0,0.0
42410.0,42383.0,0.0
42546.0,40461.0,0.0
42651.0,41808.0,0.0
42672.0,41082.0,0.0
42817.0,41257.0,0.0
42820.0,42324.0,0.0
42930.0,40513.0,0.0
43338.0,40513.0,0.0
43369.0,43338.0,0.0
43626.0,40934.0,0.0
43669.0,40513.0,0.0
43804.0,41855.0,0.0
43906.0,41851.0,0.0
43919.0,38457.0,1.0
43920.0,43919.0,1.0
43921.0,43920.0,0.0
43964.0,43906.0,0.0
43966.0,42200.0,1.0
43967.0,43966.0,0.0
43971.0,39236.0,0.0
44050.0,43919.0,0.0
44105.0,44050.0,0.0
44110.0,37682.0,0.0
44190.0,41607.0,0.0
44212.0,43804.0,0.0
44414.0,44110.0,0.0
44638.0,40513.0,0.0
44658.0,44212.0,0.0
44662.0,44658.0,0.0
44824.0,43369.0,0.0
44827.0,44824.0,1.0
44838.0,44824.0,0.0
44847.0,44824.0,0.0
44931.0,38548.0,0.0
44960.0,40625.0,1.0
45086.0,44847.0,0.0
45146.0,41808.0,0.0
45216.0,41983.0,0.0
45306.0,42930.0,0.0
45454.0,45306.0,0.0
45636.0,41257.0,0.0
45689.0,44050.0,0.0
45700.0,45689.0,0.0
46189.0,45700.0,0.0
46195.0,45454.0,0.0
46198.0,46195.0,0.0
46289.0,46189.0,0.0
46399.0,45086.0,0.0
46409.0,42383.0,0.0
46463.0,46189.0,0.0
46518.0,46399.0,0.0
46539.0,45689.0,0.0
46580.0,43626.0,0.0
46722.0,43967.0,0.0
46795.0,40513.0,0.0
46951.0,45216.0,0.0
47015.0,41342.0,0.0
47073.0,43906.0,0.0
47086.0,47073.0,0.0
47143.0,46195.0,0.0
47203.0,42410.0,0.0
47303.0,47203.0,0.0
47385.0,41257.0,0.0
47406.0,42817.0,1.0
47445.0,47385.0,0.0
47569.0,42096.0,0.0
47592.0,47569.0,0.0
47594.0,47592.0,0.0
47610.0,46539.0,0.0
47664.0,47303.0,0.0
47775.0,41269.0,0.0
47808.0,47406.0,0.0
48047.0,42820.0,0.0
48054.0,47445.0,0.0
48081.0,43919.0,0.0
48122.0,48047.0,0.0
48201.0,44827.0,0.0
48390.0,44638.0,0.0
48430.0,41804.0,0.0
48472.0,46409.0,0.0
48501.0,48472.0,0.0
48509.0,47808.0,0.0
48789.0,41808.0,0.0
48825.0,41983.0,0.0
48845.0,48054.0,0.0
48847.0,48845.0,0.0
48890.0,48430.0,0.0
48898.0,46795.0,1.0
48925.0,48825.0,0.0
49056.0,48847.0,0.0
49089.0,49056.0,1.0
49090.0,49089.0,1.0
49092.0,49089.0,1.0
49093.0,49089.0,1.0
49095.0,49090.0,1.0
49096.0,49089.0,1.0
49114.0,49095.0,0.0
49123.0,49114.0,0.0
49160.0,49056.0,0.0
49170.0,47808.0,1.0
49201.0,44110.0,0.0
49213.0,47073.0,0.0
49286.0,43971.0,0.0
49346.0,49286.0,1.0
49352.0,49286.0,0.0
49400.0,49170.0,0.0
49404.0,49400.0,0.0
49431.0,49160.0,0.0
49614.0,49095.0,0.0
49683.0,49160.0,0.0
49799.0,47143.0,0.0
49823.0,49089.0,0.0
49928.0,49823.0,0.0
50341.0,49213.0,0.0
50605.0,50341.0,1.0
50662.0,43921.0,1.0
50680.0,50662.0,0.0
50799.0,47610.0,0.0
50861.0,48201.0,1.0
50874.0,50861.0,1.0
50898.0,50874.0,1.0
50905.0,50898.0,1.0
50906.0,50905.0,1.0
50907.0,50906.0,1.0
50911.0,50906.0,1.0
51016.0,50906.0,0.0
51089.0,49683.0,0.0
51154.0,47592.0,0.0
51167.0,48201.0,0.0
51202.0,45636.0,0.0
51265.0,47808.0,0.0
51298.0,51202.0,0.0
51397.0,49056.0,0.0
51413.0,51154.0,0.0
51458.0,51154.0,0.0
51474.0,51397.0,0.0
51492.0,51474.0,0.0
51526.0,51458.0,0.0
51650.0,51154.0,0.0
51670.0,51492.0,0.0
51698.0,51492.0,0.0
51837.0,51492.0,0.0
51881.0,51397.0,0.0
51909.0,51492.0,0.0
51925.0,51492.0,0.0
51940.0,51925.0,0.0
51949.0,51940.0,0.0
51950.0,51925.0,1.0
51954.0,51949.0,1.0
51956.0,51925.0,1.0
51960.0,51925.0,1.0
51965.0,51925.0,1.0
51967.0,51965.0,1.0
51968.0,51925.0,1.0
51969.0,51968.0,1.0
51971.0,51968.0,1.0
51974.0,51968.0,1.0
51975.0,51925.0,1.0
51977.0,51975.0,1.0
51979.0,51975.0,1.0
51984.0,51977.0,1.0
51986.0,51968.0,1.0
51987.0,51986.0,1.0
51988.0,51965.0,1.0
51991.0,51975.0,1.0
51992.0,51925.0,1.0
51995.0,51975.0,1.0
51997.0,51988.0,1.0
51998.0,51992.0,1.0
52000.0,51925.0,1.0
52010.0,51925.0,1.0
52102.0,51925.0,1.0
52252.0,52102.0,0.0
52267.0,51925.0,1.0
52270.0,52267.0,1.0
52344.0,52270.0,1.0
52345.0,52344.0,1.0
52380.0,51925.0,0.0
52416.0,51925.0,1.0
52427.0,52416.0,0.0
52433.0,51925.0,0.0
52526.0,50898.0,0.0
52609.0,49683.0,0.0
52637.0,51492.0,0.0
52662.0,52267.0,0.0
52694.0,52526.0,0.0
52725.0,51925.0,0.0
52759.0,51925.0,1.0
52867.0,51925.0,1.0
52940.0,51925.0,0.0
53040.0,51925.0,1.0
53041.0,53040.0,1.0
53042.0,53041.0,1.0
53047.0,53042.0,1.0
53080.0,53041.0,0.0
53134.0,51925.0,0.0
53197.0,53041.0,0.0
53244.0,52759.0,0.0
53246.0,53244.0,0.0
53290.0,53246.0,1.0
53291.0,53290.0,1.0
53333.0,53290.0,0.0
53350.0,51202.0,1.0
53351.0,53350.0,1.0
53510.0,53290.0,0.0
53618.0,53510.0,1.0
53621.0,52526.0,1.0
53622.0,53618.0,1.0
53627.0,53618.0,1.0
53629.0,53627.0,1.0
53631.0,53629.0,0.0
53652.0,51969.0,0.0
53665.0,53652.0,1.0
53676.0,51925.0,1.0
53771.0,53290.0,0.0
53817.0,53621.0,0.0
53819.0,53817.0,1.0
53820.0,53817.0,1.0
53841.0,53820.0,1.0
53858.0,53841.0,0.0
53864.0,53858.0,0.0
53913.0,53351.0,1.0
54026.0,53290.0,1.0
54038.0,53291.0,1.0
54040.0,54038.0,1.0
54041.0,54040.0,1.0
54058.0,54041.0,0.0
54065.0,54040.0,0.0
54094.0,54040.0,1.0
54136.0,54040.0,1.0
54137.0,54136.0,1.0
54138.0,54040.0,1.0
54142.0,54136.0,1.0
54147.0,54040.0,1.0
54149.0,53913.0,1.0
54172.0,51925.0,1.0
54182.0,54038.0,1.0
54183.0,54182.0,0.0
54191.0,54183.0,0.0
54203.0,53041.0,1.0
54218.0,54183.0,0.0
54237.0,54149.0,1.0
54240.0,54218.0,0.0
54259.0,54149.0,1.0
54274.0,54138.0,1.0
54284.0,54040.0,0.0
54303.0,54040.0,1.0
54355.0,54038.0,1.0
54363.0,53290.0,1.0
54364.0,54363.0,1.0
54429.0,54218.0,1.0
54442.0,54429.0,1.0
54454.0,54429.0,1.0
54457.0,54429.0,1.0
54463.0,54429.0,1.0
54465.0,54463.0,1.0
54467.0,54454.0,0.0
54484.0,54429.0,1.0
54494.0,54040.0,1.0
54510.0,54429.0,1.0
54521.0,54429.0,1.0
54527.0,54429.0,0.0
54534.0,54429.0,1.0
54551.0,54136.0,1.0
54556.0,54429.0,1.0
54560.0,54429.0,0.0
54578.0,53244.0,1.0
54611.0,54147.0,0.0
54631.0,54429.0,1.0
54645.0,54429.0,0.0
54693.0,54429.0,0.0
54698.0,52102.0,1.0
54715.0,54527.0,0.0
54793.0,53676.0,1.0
54798.0,54429.0,1.0
54851.0,54560.0,1.0
54853.0,54040.0,1.0
54878.0,54429.0,1.0
54879.0,54878.0,0.0
54895.0,54878.0,0.0
54914.0,54429.0,1.0
54919.0,54645.0,1.0
54921.0,54919.0,1.0
54922.0,54429.0,0.0
54972.0,54429.0,1.0
54973.0,54693.0,0.0
54988.0,54972.0,0.0
54998.0,54973.0,1.0
55034.0,53510.0,1.0
55035.0,55034.0,0.0
55057.0,54698.0,1.0
55086.0,55034.0,0.0
55118.0,54998.0,1.0
55132.0,55086.0,1.0
55145.0,54429.0,1.0
55146.0,55145.0,1.0
55148.0,55145.0,0.0
55154.0,55145.0,1.0
55156.0,55146.0,0.0
55169.0,55145.0,1.0
55196.0,55169.0,1.0
55226.0,54645.0,1.0
55264.0,54922.0,1.0
55276.0,54364.0,1.0
55361.0,53913.0,1.0
55374.0,55361.0,0.0
55375.0,55374.0,1.0
55515.0,55145.0,1.0
55516.0,55515.0,0.0
55582.0,55515.0,1.0
55589.0,55264.0,0.0
55593.0,55515.0,1.0
55649.0,55264.0,1.0
55666.0,55086.0,1.0
55677.0,55593.0,1.0
55688.0,55593.0,1.0
55705.0,55035.0,1.0
55706.0,55705.0,0.0
55754.0,55515.0,1.0
55764.0,54527.0,1.0
55782.0,54457.0,0.0
55809.0,55154.0,0.0
55939.0,55754.0,0.0
55958.0,55939.0,1.0
55999.0,55958.0,1.0
56007.0,55939.0,1.0
56075.0,55782.0,1.0
56093.0,55515.0,1.0
56097.0,56093.0,1.0
56138.0,54284.0,0.0
56185.0,55057.0,1.0
56206.0,55782.0,0.0
56236.0,55754.0,1.0
56241.0,56206.0,0.0
56275.0,56236.0,0.0
56291.0,54484.0,0.0
56409.0,55169.0,0.0
56435.0,54429.0,1.0
56482.0,54355.0,0.0
56544.0,54429.0,0.0
56588.0,56291.0,1.0
56592.0,55086.0,0.0
56611.0,56592.0,0.0
56717.0,56236.0,0.0
56771.0,56717.0,0.0
56799.0,55999.0,1.0
56808.0,56544.0,0.0
56812.0,56808.0,0.0
56836.0,56812.0,1.0
56852.0,55146.0,0.0
56897.0,56771.0,0.0
56909.0,56897.0,1.0
56978.0,54853.0,0.0
57177.0,56544.0,0.0
57252.0,55169.0,0.0
57290.0,55515.0,1.0
57298.0,55264.0,1.0
57299.0,57298.0,0.0
57327.0,57290.0,1.0
57404.0,57290.0,0.0
57406.0,56836.0,1.0
57445.0,57404.0,0.0
57449.0,56409.0,1.0
57454.0,57449.0,1.0
57472.0,57449.0,0.0
57478.0,57472.0,0.0
57480.0,57472.0,0.0
57492.0,57445.0,0.0
57494.0,57492.0,0.0
57512.0,57480.0,0.0
57525.0,56897.0,0.0
57588.0,57494.0,0.0
57591.0,55515.0,0.0
57606.0,57480.0,0.0
57678.0,54879.0,1.0
57679.0,57299.0,0.0
57687.0,55593.0,0.0
57705.0,56588.0,0.0
57727.0,56236.0,0.0
57750.0,55169.0,0.0
57781.0,57606.0,0.0
57785.0,57781.0,1.0
57786.0,55086.0,1.0
57799.0,57781.0,1.0
57820.0,55146.0,0.0
57862.0,57606.0,0.0
57879.0,56717.0,1.0
57882.0,57799.0,0.0
57932.0,57879.0,1.0
57949.0,57606.0,1.0
57970.0,55515.0,1.0
57971.0,57970.0,1.0
57972.0,57971.0,1.0
57992.0,57971.0,1.0
58011.0,57992.0,1.0
58015.0,55782.0,0.0
58030.0,57992.0,0.0
58076.0,58030.0,0.0
58082.0,56897.0,1.0
58130.0,57992.0,1.0
58154.0,57992.0,1.0
58155.0,58154.0,1.0
58156.0,58155.0,0.0
58200.0,58154.0,0.0
58210.0,58154.0,0.0
58274.0,58210.0,0.0
58301.0,58210.0,0.0
58307.0,58301.0,0.0
58372.0,57992.0,0.0
58385.0,58301.0,1.0
58432.0,58154.0,1.0
58477.0,58011.0,1.0
58571.0,58156.0,0.0
58651.0,57992.0,0.0
58692.0,57588.0,1.0
58694.0,58692.0,0.0
58712.0,58571.0,0.0
58721.0,58712.0,0.0
58836.0,57472.0,0.0
58840.0,58836.0,0.0
58855.0,57750.0,0.0
58994.0,58200.0,0.0
59107.0,58840.0,0.0
59185.0,57992.0,1.0
59192.0,59185.0,0.0
59202.0,59185.0,0.0
59376.0,56097.0,0.0
59453.0,58200.0,0.0
59457.0,59453.0,0.0
59461.0,59457.0,0.0
59634.0,59457.0,0.0
59692.0,59457.0,0.0
59761.0,59461.0,1.0
59774.0,59761.0,0.0
59805.0,58030.0,1.0
59806.0,59805.0,1.0
59827.0,59761.0,0.0
59911.0,58836.0,0.0
59966.0,59911.0,0.0
59972.0,59202.0,0.0
60038.0,56909.0,0.0
60079.0,57252.0,1.0
60080.0,60079.0,1.0
60094.0,57750.0,0.0
60259.0,58994.0,0.0
60287.0,60079.0,0.0
60308.0,59185.0,0.0
60313.0,60308.0,0.0
60315.0,60079.0,0.0
60378.0,60079.0,1.0
60450.0,60378.0,0.0
60462.0,57727.0,0.0
60504.0,59911.0,0.0
60532.0,59107.0,0.0
60541.0,58692.0,0.0
60567.0,60079.0,0.0
60646.0,58712.0,0.0
60833.0,60079.0,0.0
60850.0,60378.0,0.0
60878.0,60646.0,1.0
60888.0,58154.0,0.0
60897.0,60888.0,1.0
60898.0,60897.0,1.0
60940.0,60888.0,0.0
60950.0,60833.0,0.0
60971.0,60888.0,1.0
60972.0,60971.0,0.0
61187.0,60850.0,0.0
61194.0,61187.0,0.0
61249.0,60971.0,0.0
61292.0,60888.0,1.0
61298.0,61292.0,0.0
61320.0,58307.0,0.0
61375.0,60888.0,0.0
61484.0,60079.0,0.0
61556.0,60971.0,0.0
61595.0,60567.0,0.0
61597.0,61595.0,0.0
61659.0,61556.0,0.0
61702.0,61659.0,0.0
61705.0,61659.0,0.0
61707.0,61705.0,1.0
61728.0,61705.0,0.0
61746.0,60888.0,1.0
61761.0,57992.0,0.0
61822.0,61320.0,0.0
61839.0,61194.0,0.0
61853.0,61292.0,0.0
61876.0,61595.0,0.0
61903.0,61839.0,1.0
61904.0,61903.0,1.0
61906.0,61904.0,0.0
61918.0,61839.0,1.0
61950.0,61839.0,1.0
61989.0,61904.0,0.0
62014.0,61597.0,0.0
62131.0,59457.0,0.0
62180.0,60897.0,0.0
62184.0,62180.0,0.0
62192.0,61918.0,0.0
62238.0,61853.0,0.0
62298.0,60950.0,0.0
62326.0,60878.0,0.0
62349.0,62298.0,0.0
62413.0,61556.0,1.0
62443.0,61746.0,0.0
62477.0,62298.0,0.0
62496.0,61484.0,0.0
62505.0,58994.0,0.0
62510.0,61822.0,0.0
62520.0,60504.0,1.0
62533.0,62443.0,0.0
62626.0,62533.0,0.0
62635.0,61839.0,0.0
62704.0,60079.0,1.0
62706.0,62704.0,0.0
62712.0,62704.0,0.0
62743.0,61839.0,0.0
62763.0,60898.0,1.0
62764.0,62763.0,0.0
62864.0,61298.0,0.0
62888.0,61904.0,0.0
62935.0,62626.0,0.0
62951.0,62533.0,0.0
62955.0,61904.0,0.0
62958.0,62951.0,0.0
62984.0,60950.0,0.0
62986.0,62958.0,1.0
62988.0,62984.0,0.0
63032.0,60038.0,0.0
63062.0,62951.0,1.0
63064.0,62443.0,0.0
63079.0,62764.0,0.0
63142.0,61320.0,0.0
63171.0,62496.0,0.0
63227.0,62986.0,0.0
63273.0,62635.0,0.0
63330.0,62951.0,0.0
63345.0,62988.0,0.0
63400.0,63227.0,0.0
63494.0,63079.0,0.0
63511.0,63494.0,0.0
63643.0,63345.0,1.0
63644.0,63643.0,0.0
63693.0,61292.0,0.0
63740.0,63643.0,1.0
63768.0,62443.0,0.0
63783.0,61904.0,0.0
63794.0,63768.0,0.0
63803.0,63345.0,0.0
63847.0,63803.0,0.0
64064.0,63171.0,0.0
64071.0,63643.0,1.0
64096.0,61904.0,0.0
64100.0,64096.0,0.0
64102.0,64100.0,0.0
64110.0,64096.0,0.0
64158.0,63794.0,0.0
64237.0,64064.0,0.0
64360.0,63768.0,1.0
64372.0,64360.0,0.0
64454.0,61659.0,0.0
64468.0,64158.0,0.0
64473.0,64454.0,0.0
64492.0,62180.0,0.0
64554.0,64492.0,1.0
64576.0,64492.0,0.0
64617.0,63768.0,0.0
64633.0,64617.0,0.0
64665.0,64633.0,1.0
64672.0,64492.0,0.0
64811.0,64492.0,1.0
64820.0,64811.0,1.0
64821.0,64820.0,0.0
64867.0,64554.0,1.0
64870.0,64867.0,1.0
64872.0,64870.0,1.0
64874.0,64872.0,1.0
64878.0,64870.0,1.0
64879.0,64870.0,1.0
64880.0,64879.0,1.0
64882.0,64874.0,1.0
64895.0,64879.0,1.0
64899.0,64872.0,1.0
64933.0,64882.0,1.0
64940.0,64933.0,0.0
64986.0,64110.0,0.0
64987.0,64986.0,0.0
65009.0,63227.0,0.0
65053.0,64870.0,0.0
65118.0,64665.0,0.0
65140.0,64492.0,0.0
65167.0,64870.0,0.0
65230.0,64492.0,0.0
65379.0,63847.0,0.0
65453.0,62986.0,0.0
65508.0,62864.0,0.0
65512.0,65508.0,0.0
65596.0,65508.0,0.0
65618.0,65596.0,0.0
65634.0,64096.0,0.0
65656.0,64360.0,0.0
65692.0,64870.0,0.0
65694.0,65656.0,0.0
65783.0,65453.0,1.0
65785.0,65783.0,0.0
65807.0,65783.0,0.0
65815.0,65656.0,0.0
65873.0,65815.0,0.0
65886.0,64492.0,0.0
65920.0,65634.0,0.0
65973.0,65656.0,0.0
66033.0,65508.0,0.0
66043.0,65053.0,0.0
66068.0,66043.0,0.0
66094.0,65886.0,0.0
66098.0,66094.0,1.0
66106.0,65167.0,0.0
66137.0,64110.0,0.0
66213.0,66098.0,0.0
66215.0,66137.0,0.0
66252.0,66098.0,0.0
66289.0,65618.0,0.0
66297.0,66289.0,0.0
66381.0,63273.0,0.0
66386.0,66381.0,0.0
66431.0,65453.0,0.0
66433.0,66381.0,0.0
66434.0,66433.0,0.0
66467.0,65656.0,0.0
66557.0,65379.0,0.0
66588.0,66557.0,0.0
66616.0,66289.0,0.0
66689.0,65453.0,0.0
66739.0,64473.0,0.0
66788.0,66739.0,0.0
66817.0,63847.0,0.0
66843.0,66739.0,0.0
66925.0,66557.0,0.0
67018.0,66213.0,1.0
67028.0,67018.0,1.0
67029.0,67028.0,0.0
67067.0,66925.0,0.0
67103.0,65053.0,0.0
67105.0,67103.0,1.0
67107.0,67028.0,0.0
67114.0,65634.0,1.0
67116.0,67114.0,0.0
67123.0,67114.0,0.0
67137.0,66925.0,0.0
67233.0,66925.0,0.0
67234.0,67233.0,0.0
67272.0,65118.0,1.0
67306.0,64492.0,1.0
67308.0,67306.0,1.0
67317.0,67306.0,1.0
67323.0,67317.0,0.0
67332.0,67306.0,1.0
67335.0,67332.0,1.0
67346.0,67323.0,1.0
67347.0,67335.0,1.0
67354.0,67335.0,1.0
67359.0,67332.0,1.0
67360.0,67359.0,1.0
67361.0,67347.0,1.0
67363.0,67354.0,0.0
67364.0,67363.0,1.0
67368.0,67363.0,1.0
67369.0,67368.0,1.0
67370.0,67369.0,1.0
67372.0,67354.0,1.0
67379.0,67363.0,1.0
67414.0,67379.0,1.0
67418.0,67379.0,1.0
67426.0,67418.0,1.0
67430.0,67370.0,1.0
67433.0,67418.0,1.0
67435.0,67418.0,1.0
67436.0,67435.0,1.0
67437.0,67436.0,1.0
67438.0,67436.0,1.0
67440.0,67436.0,1.0
67442.0,67436.0,1.0
67443.0,67436.0,1.0
67444.0,67442.0,1.0
67446.0,67436.0,1.0
67447.0,67436.0,1.0
67448.0,67436.0,1.0
67451.0,67436.0,1.0
67452.0,67436.0,1.0
67454.0,67443.0,1.0
67456.0,67435.0,1.0
67457.0,67448.0,1.0
67458.0,67436.0,1.0
67460.0,67436.0,1.0
67461.0,67440.0,1.0
67462.0,67461.0,1.0
67465.0,67436.0,1.0
67466.0,67465.0,1.0
67467.0,67465.0,1.0
67470.0,67456.0,1.0
67472.0,67436.0,1.0
67473.0,67436.0,1.0
67475.0,67473.0,1.0
67479.0,67475.0,1.0
67480.0,67475.0,1.0
67481.0,67475.0,1.0
67484.0,67475.0,1.0
67485.0,67475.0,1.0
67486.0,67475.0,1.0
67487.0,67485.0,1.0
67489.0,67475.0,1.0
67491.0,67461.0,1.0
67492.0,67491.0,1.0
67493.0,67492.0,1.0
67494.0,67492.0,1.0
67497.0,67475.0,1.0
67499.0,67475.0,1.0
67501.0,67494.0,1.0
67502.0,67475.0,1.0
67503.0,67502.0,1.0
67504.0,67475.0,1.0
67506.0,67491.0,1.0
67508.0,67475.0,1.0
67510.0,67502.0,1.0
67513.0,67486.0,1.0
67517.0,67480.0,1.0
67518.0,67506.0,1.0
67519.0,67475.0,1.0
67520.0,67517.0,1.0
67521.0,67520.0,1.0
67524.0,67491.0,1.0
67528.0,67457.0,1.0
67529.0,67475.0,1.0
67530.0,67452.0,1.0
67533.0,67491.0,1.0
67534.0,67533.0,1.0
67536.0,67534.0,1.0
67542.0,67435.0,1.0
67543.0,67520.0,1.0
67544.0,67448.0,1.0
67551.0,67493.0,1.0
67552.0,67436.0,1.0
67553.0,67552.0,1.0
67559.0,67438.0,1.0
67560.0,67475.0,1.0
67561.0,67560.0,1.0
67562.0,67561.0,1.0
67565.0,67475.0,1.0
67580.0,67520.0,1.0
67581.0,67497.0,1.0
67584.0,67426.0,1.0
67585.0,67584.0,1.0
67586.0,67492.0,1.0
67587.0,67475.0,1.0
67591.0,67543.0,1.0
67597.0,67559.0,1.0
67601.0,67529.0,1.0
67604.0,67475.0,1.0
67609.0,67481.0,1.0
67610.0,67436.0,1.0
67611.0,67475.0,1.0
67612.0,67610.0,1.0
67613.0,67609.0,1.0
67614.0,67610.0,1.0
67615.0,67610.0,1.0
67616.0,67475.0,1.0
67617.0,67456.0,1.0
67622.0,67475.0,1.0
67628.0,67610.0,1.0
67630.0,67553.0,1.0
67632.0,67622.0,1.0
67635.0,67610.0,1.0
67641.0,67418.0,1.0
67653.0,67466.0,1.0
67656.0,67475.0,1.0
67658.0,67475.0,1.0
67660.0,67510.0,1.0
67667.0,67465.0,1.0
67670.0,67492.0,1.0
67671.0,67670.0,1.0
67672.0,67670.0,1.0
67673.0,67670.0,1.0
67674.0,67670.0,1.0
67675.0,67670.0,1.0
67676.0,67670.0,1.0
67678.0,67670.0,1.0
67679.0,67670.0,1.0
67681.0,67670.0,1.0
67682.0,67670.0,1.0
67683.0,67675.0,1.0
67684.0,67670.0,1.0
67686.0,67670.0,1.0
67687.0,67670.0,1.0
67688.0,67679.0,1.0
67689.0,67670.0,1.0
67690.0,67670.0,1.0
67691.0,67670.0,1.0
67693.0,67691.0,1.0
67697.0,67670.0,1.0
67700.0,67670.0,1.0
67702.0,67670.0,1.0
67707.0,67670.0,1.0
67708.0,67670.0,1.0
67712.0,67670.0,0.0
67714.0,67670.0,1.0
67715.0,67670.0,1.0
67722.0,67670.0,1.0
67723.0,67670.0,1.0
67724.0,67723.0,1.0
67725.0,67708.0,1.0
67727.0,67670.0,1.0
67730.0,67670.0,1.0
67735.0,67674.0,1.0
67754.0,67670.0,1.0
67755.0,67754.0,1.0
67756.0,67723.0,1.0
67757.0,67670.0,1.0
67758.0,67670.0,1.0
67759.0,67758.0,1.0
67762.0,67670.0,1.0
67763.0,67762.0,1.0
67764.0,67762.0,1.0
67768.0,67762.0,1.0
67771.0,67763.0,1.0
67773.0,67771.0,1.0
67772.0,67773.0,1.0
67793.0,67520.0,1.0
67798.0,67670.0,1.0
67824.0,67672.0,1.0
67826.0,67824.0,1.0
67829.0,67824.0,1.0
67830.0,67826.0,1.0
67831.0,67658.0,1.0
67843.0,67671.0,1.0
67868.0,67670.0,1.0
67874.0,67670.0,1.0
67876.0,67670.0,1.0
67886.0,67670.0,1.0
67889.0,67886.0,1.0
67890.0,67886.0,1.0
67895.0,67702.0,1.0
67933.0,67886.0,1.0
67942.0,67768.0,0.0
67959.0,67942.0,1.0
67975.0,67580.0,1.0
67991.0,67874.0,1.0
68000.0,67942.0,1.0
68026.0,67690.0,0.0
68044.0,67670.0,1.0
68064.0,67933.0,1.0
68083.0,67670.0,1.0
68086.0,67670.0,1.0
68096.0,67670.0,1.0
68122.0,67707.0,1.0
68135.0,67658.0,1.0
68136.0,67959.0,1.0
68137.0,68136.0,1.0
68138.0,68136.0,1.0
68140.0,68136.0,1.0
68142.0,68140.0,1.0
68143.0,68142.0,1.0
68156.0,68142.0,1.0
68166.0,68136.0,1.0
68168.0,68136.0,1.0
68178.0,68156.0,0.0
68193.0,68136.0,1.0
68223.0,68143.0,1.0
68225.0,68223.0,1.0
68241.0,68136.0,1.0
68242.0,68241.0,1.0
68244.0,68242.0,1.0
68245.0,68242.0,1.0
68246.0,68242.0,1.0
68250.0,68242.0,1.0
68251.0,68245.0,1.0
68252.0,68242.0,1.0
68253.0,68242.0,1.0
68254.0,68242.0,1.0
68255.0,68242.0,1.0
68262.0,68242.0,1.0
68265.0,68242.0,1.0
68266.0,68242.0,1.0
68275.0,68242.0,1.0
68276.0,68242.0,1.0
68279.0,68265.0,1.0
68282.0,68242.0,1.0
68292.0,68242.0,1.0
68294.0,68242.0,1.0
68307.0,68242.0,1.0
68314.0,68244.0,1.0
68325.0,68242.0,1.0
68327.0,68138.0,1.0
68332.0,68294.0,1.0
68348.0,68242.0,1.0
68349.0,68242.0,1.0
68358.0,68140.0,1.0
68366.0,68245.0,1.0
68368.0,68241.0,1.0
68378.0,68245.0,1.0
68389.0,68242.0,1.0
68390.0,68242.0,1.0
68391.0,68390.0,0.0
68398.0,68193.0,1.0
68399.0,68349.0,1.0
68400.0,68242.0,1.0
68402.0,68242.0,1.0
68403.0,68402.0,1.0
68412.0,67886.0,1.0
68413.0,68412.0,1.0
68415.0,68402.0,1.0
68417.0,68413.0,1.0
68420.0,68413.0,1.0
68429.0,68415.0,1.0
68431.0,68429.0,1.0
68432.0,68242.0,1.0
68433.0,68391.0,1.0
68436.0,68242.0,1.0
68437.0,68436.0,1.0
68438.0,68437.0,1.0
68448.0,68438.0,1.0
68457.0,68438.0,1.0
68458.0,68457.0,1.0
68463.0,68457.0,1.0
68468.0,68457.0,1.0
68471.0,68457.0,1.0
68476.0,68253.0,1.0
68478.0,68476.0,1.0
68479.0,68457.0,1.0
68481.0,68242.0,1.0
68482.0,68481.0,1.0
68483.0,68476.0,1.0
68485.0,68478.0,1.0
68492.0,68457.0,1.0
68494.0,68457.0,1.0
68497.0,68457.0,1.0
68498.0,68497.0,1.0
68499.0,68138.0,1.0
68504.0,68457.0,1.0
68505.0,68481.0,1.0
68506.0,68498.0,1.0
68515.0,68137.0,0.0
68534.0,68242.0,1.0
68537.0,68481.0,1.0
68541.0,68433.0,1.0
68543.0,68241.0,1.0
68551.0,68156.0,1.0
68556.0,68457.0,1.0
68558.0,68242.0,1.0
68569.0,68515.0,1.0
68592.0,68481.0,1.0
68599.0,68358.0,1.0
68604.0,68599.0,1.0
68605.0,68551.0,1.0
68641.0,68569.0,1.0
68649.0,68641.0,1.0
68658.0,68497.0,1.0
68673.0,68457.0,0.0
68674.0,68242.0,1.0
68679.0,68506.0,1.0
68682.0,68457.0,1.0
68683.0,68558.0,1.0
68684.0,68679.0,1.0
68687.0,68476.0,1.0
68689.0,68457.0,1.0
68692.0,68457.0,1.0
68701.0,68679.0,1.0
68740.0,68457.0,1.0
68744.0,68457.0,1.0
68750.0,68457.0,1.0
68755.0,68457.0,1.0
68758.0,68457.0,1.0
68759.0,68437.0,1.0
68766.0,68759.0,1.0
68765.0,68766.0,1.0
68769.0,68766.0,1.0
68781.0,68769.0,1.0
68782.0,68769.0,1.0
68787.0,68758.0,1.0
68797.0,68769.0,1.0
68802.0,68769.0,1.0
68806.0,68759.0,1.0
68822.0,68457.0,1.0
68834.0,68769.0,1.0
68837.0,68834.0,1.0
68838.0,68834.0,0.0
68847.0,68769.0,1.0
68856.0,68834.0,1.0
68863.0,68457.0,0.0
68866.0,68769.0,1.0
68868.0,68457.0,1.0
68870.0,68769.0,1.0
68872.0,68868.0,1.0
68873.0,68872.0,1.0
68875.0,68872.0,1.0
68876.0,68872.0,1.0
68889.0,68872.0,1.0
68899.0,68872.0,1.0
68900.0,68872.0,1.0
68916.0,68413.0,1.0
68927.0,68916.0,1.0
68929.0,68876.0,1.0
68943.0,68457.0,1.0
68953.0,68943.0,1.0
68961.0,68943.0,1.0
68980.0,68943.0,0.0
68993.0,68534.0,1.0
68999.0,68980.0,1.0
69002.0,68980.0,1.0
69007.0,68943.0,1.0
69008.0,68999.0,0.0
69020.0,68847.0,1.0
69052.0,68872.0,1.0
69078.0,68943.0,1.0
69077.0,69078.0,1.0
69104.0,68953.0,1.0
69110.0,69008.0,1.0
69112.0,68759.0,1.0
69140.0,68683.0,1.0
69141.0,68916.0,1.0
69150.0,69141.0,1.0
69153.0,68953.0,1.0
69164.0,68750.0,1.0
69191.0,68872.0,0.0
69195.0,69141.0,1.0
69218.0,69141.0,0.0
69220.0,69218.0,1.0
69238.0,68943.0,1.0
69264.0,68943.0,0.0
69289.0,68872.0,1.0
69294.0,68759.0,1.0
69305.0,68943.0,0.0
69326.0,68872.0,1.0
69328.0,68872.0,1.0
69332.0,69328.0,1.0
69336.0,69332.0,1.0
69337.0,68876.0,1.0
69345.0,69332.0,0.0
69356.0,68769.0,0.0
69385.0,68847.0,1.0
69391.0,68769.0,1.0
69474.0,68759.0,1.0
69475.0,69474.0,1.0
69476.0,69474.0,1.0
69477.0,69474.0,1.0
69480.0,69474.0,1.0
69481.0,69474.0,1.0
69484.0,69474.0,1.0
69492.0,69474.0,1.0
69503.0,69474.0,1.0
69504.0,68872.0,1.0
69509.0,69474.0,1.0
69511.0,69474.0,0.0
69512.0,69474.0,1.0
69518.0,69511.0,1.0
69523.0,69474.0,1.0
69533.0,69474.0,1.0
69544.0,69474.0,1.0
69546.0,68943.0,1.0
69574.0,69474.0,1.0
69581.0,69474.0,1.0
69585.0,69474.0,1.0
69624.0,69474.0,1.0
69626.0,69624.0,1.0
69628.0,69624.0,1.0
69644.0,69474.0,1.0
69676.0,69624.0,1.0
69683.0,69474.0,1.0
69705.0,68943.0,1.0
69711.0,68953.0,0.0
69740.0,69020.0,0.0
69763.0,69474.0,0.0
69766.0,69763.0,1.0
69834.0,69475.0,0.0
69876.0,69474.0,1.0
69884.0,69474.0,1.0
69983.0,68943.0,0.0
69998.0,69474.0,1.0
70082.0,69983.0,1.0
70084.0,70082.0,0.0
70129.0,69474.0,1.0
70189.0,70082.0,1.0
70207.0,69624.0,1.0
70287.0,69474.0,0.0
70331.0,69998.0,0.0
70362.0,69474.0,0.0
70387.0,69474.0,1.0
70388.0,70387.0,0.0
70400.0,69141.0,1.0
70407.0,69492.0,0.0
70434.0,70387.0,1.0
70504.0,69474.0,0.0
70553.0,69474.0,0.0
70562.0,69474.0,0.0
70564.0,70562.0,0.0
70569.0,70564.0,1.0
70570.0,68953.0,1.0
70583.0,70570.0,0.0
70594.0,69474.0,1.0
70598.0,69474.0,1.0
70602.0,70598.0,0.0
70640.0,69474.0,1.0
70647.0,70640.0,1.0
70649.0,70647.0,1.0
70650.0,70647.0,0.0
70672.0,70647.0,1.0
70674.0,70647.0,1.0
70731.0,70647.0,1.0
70744.0,69474.0,1.0
70745.0,70744.0,1.0
70748.0,70745.0,0.0
70862.0,70129.0,0.0
70866.0,70862.0,1.0
70874.0,70862.0,0.0
70903.0,69474.0,0.0
70909.0,69474.0,1.0
70944.0,69474.0,0.0
70955.0,70944.0,1.0
70956.0,70944.0,1.0
70966.0,70944.0,0.0
70991.0,70955.0,1.0
70992.0,70991.0,1.0
71029.0,69624.0,0.0
71066.0,70955.0,1.0
71095.0,69474.0,1.0
71108.0,69474.0,0.0
71127.0,69474.0,0.0
71152.0,70400.0,1.0
71153.0,71152.0,0.0
71187.0,70991.0,0.0
71276.0,69474.0,0.0
71317.0,69474.0,0.0
71342.0,71187.0,0.0
71375.0,69474.0,1.0
71379.0,71375.0,1.0
71382.0,71379.0,1.0
71383.0,71382.0,1.0
71393.0,71382.0,1.0
71394.0,70082.0,1.0
71399.0,71382.0,1.0
71405.0,71382.0,0.0
71424.0,71127.0,0.0
71478.0,70866.0,1.0
71492.0,71382.0,1.0
71500.0,71379.0,1.0
71528.0,71500.0,0.0
71664.0,70553.0,0.0
71676.0,70564.0,1.0
71683.0,70944.0,0.0
71712.0,69763.0,1.0
71714.0,69511.0,0.0
71876.0,71317.0,0.0
71877.0,70553.0,0.0
71899.0,71877.0,0.0
71978.0,71877.0,0.0
71979.0,71978.0,0.0
72043.0,69624.0,0.0
72079.0,70362.0,0.0
72087.0,70866.0,1.0
72105.0,70189.0,1.0
72119.0,72105.0,1.0
72121.0,72119.0,1.0
72134.0,72119.0,1.0
72141.0,72105.0,1.0
72146.0,72121.0,0.0
72240.0,69763.0,0.0
72316.0,72240.0,0.0
72346.0,72316.0,1.0
72387.0,69763.0,0.0
72390.0,72387.0,1.0
72397.0,72387.0,0.0
72536.0,71979.0,0.0
72538.0,72387.0,0.0
72547.0,71153.0,1.0
72552.0,72547.0,1.0
72561.0,72547.0,1.0
72562.0,72561.0,1.0
72563.0,72562.0,1.0
72564.0,72562.0,1.0
72565.0,72564.0,1.0
72567.0,72564.0,1.0
72568.0,72564.0,1.0
72569.0,72564.0,1.0
72571.0,72564.0,1.0
72572.0,72564.0,1.0
72573.0,72564.0,1.0
72574.0,72564.0,1.0
72575.0,72564.0,1.0
72576.0,72568.0,1.0
72577.0,72571.0,1.0
72578.0,72564.0,1.0
72579.0,72578.0,1.0
72580.0,72578.0,1.0
72581.0,72580.0,1.0
72582.0,72564.0,1.0
72583.0,72564.0,1.0
72584.0,72564.0,1.0
72585.0,72583.0,1.0
72586.0,72579.0,1.0
72587.0,72564.0,1.0
72588.0,72564.0,1.0
72589.0,72578.0,1.0
72591.0,72589.0,1.0
72592.0,72591.0,1.0
72593.0,72589.0,1.0
72595.0,72564.0,1.0
72596.0,72564.0,1.0
72597.0,72564.0,1.0
72598.0,72564.0,1.0
72599.0,72564.0,1.0
72600.0,72564.0,1.0
72601.0,72564.0,1.0
72602.0,72600.0,1.0
72604.0,72564.0,1.0
72605.0,72589.0,1.0
72606.0,72564.0,1.0
72607.0,72597.0,1.0
72608.0,72605.0,1.0
72609.0,72589.0,1.0
72610.0,72609.0,1.0
72612.0,72564.0,1.0
72613.0,72609.0,1.0
72614.0,72564.0,1.0
72615.0,72609.0,1.0
72616.0,72564.0,1.0
72617.0,72564.0,1.0
72618.0,72601.0,1.0
72619.0,72613.0,1.0
72620.0,72609.0,1.0
72621.0,72620.0,1.0
72622.0,72564.0,1.0
72623.0,72615.0,1.0
72624.0,72589.0,1.0
72625.0,72624.0,1.0
72626.0,72623.0,1.0
72629.0,72616.0,1.0
72630.0,72624.0,1.0
72631.0,72619.0,1.0
72633.0,72630.0,1.0
72637.0,72624.0,1.0
72638.0,72623.0,1.0
72640.0,72564.0,1.0
72641.0,72591.0,1.0
72644.0,72637.0,1.0
72645.0,72631.0,1.0
72653.0,72564.0,1.0
72654.0,72564.0,1.0
72655.0,72564.0,1.0
72656.0,72564.0,1.0
72657.0,72564.0,1.0
72658.0,72657.0,1.0
72659.0,72564.0,1.0
72660.0,72571.0,1.0
72661.0,72623.0,1.0
72663.0,72626.0,1.0
72666.0,72586.0,1.0
72667.0,72666.0,1.0
72668.0,72564.0,1.0
72669.0,72666.0,1.0
72671.0,72666.0,1.0
72672.0,72666.0,1.0
72673.0,72671.0,1.0
72674.0,72666.0,1.0
72675.0,72666.0,1.0
72678.0,72564.0,1.0
72679.0,72666.0,1.0
72681.0,72562.0,1.0
72682.0,72681.0,1.0
72683.0,72666.0,1.0
72684.0,72666.0,1.0
72687.0,72666.0,1.0
72688.0,72681.0,1.0
72689.0,72666.0,1.0
72693.0,72687.0,1.0
72695.0,72589.0,1.0
72696.0,72695.0,1.0
72697.0,72695.0,1.0
72698.0,72666.0,1.0
72700.0,72564.0,1.0
72701.0,72666.0,1.0
72702.0,72666.0,1.0
72710.0,72666.0,1.0
72712.0,72666.0,1.0
72716.0,72609.0,1.0
72718.0,72666.0,1.0
72722.0,72666.0,1.0
72725.0,72666.0,1.0
72726.0,72666.0,1.0
72727.0,72725.0,1.0
72733.0,72666.0,1.0
72734.0,72695.0,1.0
72736.0,72666.0,1.0
72741.0,72666.0,1.0
72742.0,72741.0,1.0
72744.0,72666.0,1.0
72745.0,72668.0,1.0
72746.0,72745.0,1.0
72747.0,72666.0,1.0
72748.0,72744.0,1.0
72749.0,72748.0,1.0
72752.0,72631.0,1.0
72753.0,72666.0,1.0
72754.0,72753.0,1.0
72756.0,72666.0,1.0
72762.0,72666.0,1.0
72765.0,72666.0,1.0
72769.0,72666.0,1.0
72770.0,72765.0,1.0
72771.0,72769.0,1.0
72774.0,72621.0,1.0
72775.0,72774.0,1.0
72780.0,72666.0,1.0
72781.0,72780.0,1.0
72785.0,72605.0,1.0
72786.0,72712.0,1.0
72787.0,72775.0,1.0
72788.0,72666.0,1.0
72789.0,72718.0,1.0
72791.0,72674.0,1.0
72802.0,72666.0,1.0
72806.0,72624.0,1.0
72807.0,72666.0,1.0
72816.0,72666.0,1.0
72818.0,72666.0,1.0
72819.0,72631.0,1.0
72820.0,72626.0,1.0
72828.0,72666.0,1.0
72831.0,72666.0,1.0
72832.0,72630.0,1.0
72833.0,72832.0,1.0
72838.0,72733.0,1.0
72837.0,72838.0,1.0
72839.0,72838.0,1.0
72840.0,72832.0,1.0
72848.0,72832.0,1.0
72849.0,72848.0,1.0
72850.0,72832.0,1.0
72853.0,72832.0,1.0
72856.0,72666.0,1.0
72860.0,72832.0,1.0
72863.0,72832.0,1.0
72867.0,72666.0,1.0
72868.0,72832.0,1.0
72871.0,72838.0,1.0
72872.0,72863.0,1.0
72874.0,72666.0,1.0
72879.0,72696.0,1.0
72880.0,72832.0,1.0
72881.0,72880.0,1.0
72886.0,72663.0,1.0
72887.0,72832.0,1.0
72891.0,72710.0,1.0
72892.0,72666.0,1.0
72897.0,72666.0,1.0
72903.0,72689.0,1.0
72915.0,72832.0,1.0
72919.0,72832.0,1.0
72921.0,72919.0,1.0
72922.0,72832.0,1.0
72924.0,72872.0,1.0
72926.0,72922.0,1.0
72927.0,72892.0,1.0
72928.0,72927.0,1.0
72929.0,72928.0,1.0
72936.0,72741.0,1.0
72938.0,72774.0,1.0
72943.0,72695.0,1.0
72947.0,72756.0,1.0
72952.0,72718.0,1.0
72957.0,72831.0,1.0
72964.0,72832.0,1.0
72968.0,72880.0,1.0
72976.0,72819.0,1.0
72977.0,72832.0,1.0
72981.0,72977.0,1.0
72989.0,72892.0,1.0
72991.0,72832.0,1.0
72993.0,72832.0,1.0
72995.0,72880.0,1.0
72996.0,72991.0,1.0
73000.0,72976.0,1.0
73002.0,72744.0,1.0
73004.0,73002.0,0.0
73006.0,72996.0,1.0
73008.0,72929.0,1.0
73010.0,72996.0,1.0
73011.0,73008.0,1.0
73012.0,73011.0,1.0
73014.0,72996.0,1.0
73015.0,73008.0,1.0
73017.0,72936.0,1.0
73019.0,73017.0,1.0
73020.0,73017.0,1.0
73024.0,73017.0,1.0
73028.0,73017.0,1.0
73030.0,73028.0,1.0
73032.0,73017.0,1.0
73036.0,73004.0,1.0
73039.0,73012.0,1.0
73040.0,73036.0,1.0
73043.0,73039.0,0.0
73051.0,73017.0,1.0
73060.0,72947.0,1.0
73077.0,73017.0,1.0
73079.0,73017.0,1.0
73092.0,72780.0,1.0
73093.0,73092.0,1.0
73094.0,73092.0,1.0
73095.0,73093.0,1.0
73098.0,73094.0,1.0
73102.0,73098.0,1.0
73122.0,72832.0,1.0
73130.0,72832.0,1.0
73141.0,73020.0,1.0
73151.0,73040.0,1.0
73161.0,73094.0,1.0
73165.0,72996.0,1.0
73167.0,72881.0,1.0
73170.0,73017.0,1.0
73173.0,73017.0,1.0
73176.0,73141.0,0.0
73189.0,72832.0,1.0
73192.0,73165.0,1.0
73193.0,72996.0,1.0
73205.0,72832.0,0.0
73226.0,72832.0,1.0
73253.0,73017.0,1.0
73255.0,73253.0,1.0
73259.0,73008.0,1.0
73271.0,73151.0,1.0
73274.0,73192.0,1.0
73289.0,73255.0,1.0
73291.0,73289.0,1.0
73301.0,72996.0,1.0
73303.0,73301.0,1.0
73304.0,73301.0,1.0
73306.0,73301.0,1.0
73307.0,73303.0,1.0
73309.0,73306.0,1.0
73312.0,73309.0,1.0
73313.0,73301.0,0.0
73316.0,73309.0,1.0
73322.0,73043.0,1.0
73323.0,73322.0,1.0
73325.0,73323.0,0.0
73327.0,73323.0,1.0
73329.0,72927.0,1.0
73330.0,73329.0,1.0
73348.0,73309.0,1.0
73349.0,73348.0,1.0
73350.0,73348.0,1.0
73351.0,73350.0,1.0
73353.0,73351.0,1.0
73354.0,73353.0,1.0
73366.0,73353.0,1.0
73370.0,73291.0,1.0
73371.0,73313.0,1.0
73373.0,72943.0,1.0
73374.0,73373.0,1.0
73376.0,73374.0,1.0
73377.0,73313.0,1.0
73378.0,73377.0,1.0
73379.0,73376.0,1.0
73387.0,73376.0,1.0
73391.0,73376.0,1.0
73403.0,73309.0,1.0
73417.0,73376.0,1.0
73423.0,73040.0,0.0
73428.0,73376.0,0.0
73449.0,73376.0,1.0
73483.0,73376.0,1.0
73488.0,73376.0,1.0
73492.0,73376.0,1.0
73493.0,73492.0,1.0
73523.0,73374.0,1.0
73524.0,73376.0,1.0
73532.0,73353.0,1.0
73562.0,73330.0,0.0
73565.0,73428.0,1.0
73590.0,73141.0,1.0
73599.0,73330.0,1.0
73611.0,73017.0,1.0
73613.0,73611.0,1.0
73652.0,73376.0,1.0
73653.0,73652.0,0.0
73674.0,73376.0,1.0
73678.0,73030.0,1.0
73679.0,73678.0,1.0
73696.0,73376.0,1.0
73707.0,73376.0,0.0
73708.0,73707.0,0.0
73760.0,73674.0,0.0
73764.0,73376.0,0.0
73786.0,73674.0,1.0
73800.0,73309.0,0.0
73810.0,73800.0,0.0
73811.0,73327.0,1.0
73817.0,73811.0,1.0
73824.0,73253.0,1.0
73825.0,73824.0,1.0
73843.0,73271.0,0.0
73863.0,73674.0,1.0
73865.0,73707.0,1.0
73867.0,73863.0,1.0
73903.0,73843.0,0.0
73913.0,73786.0,1.0
73988.0,73867.0,0.0
74017.0,73913.0,0.0
74029.0,74017.0,1.0
74055.0,73329.0,1.0
74057.0,73151.0,1.0
74058.0,73800.0,1.0
74063.0,74057.0,1.0
74073.0,74063.0,1.0
74072.0,74073.0,1.0
74075.0,73374.0,1.0
74077.0,74075.0,1.0
74083.0,74055.0,1.0
74085.0,74083.0,1.0
74086.0,74085.0,1.0
74089.0,74057.0,0.0
74107.0,73817.0,1.0
74125.0,74089.0,1.0
74126.0,74125.0,1.0
74176.0,73800.0,1.0
74182.0,74176.0,1.0
74195.0,74125.0,1.0
74207.0,74126.0,1.0
74230.0,74176.0,1.0
74237.0,73843.0,0.0
74243.0,74176.0,0.0
74268.0,74176.0,1.0
74269.0,74268.0,1.0
74305.0,74073.0,1.0
74315.0,73590.0,0.0
74320.0,74315.0,1.0
74384.0,73376.0,1.0
74387.0,73843.0,1.0
74410.0,74063.0,0.0
74496.0,74269.0,1.0
74515.0,74496.0,1.0
74518.0,74515.0,0.0
74536.0,74496.0,1.0
74607.0,74057.0,0.0
74617.0,74607.0,1.0
74670.0,74029.0,1.0
74675.0,74670.0,0.0
74683.0,74176.0,1.0
74684.0,74683.0,1.0
74685.0,74176.0,1.0
74691.0,74176.0,1.0
74698.0,74691.0,1.0
74700.0,74698.0,0.0
74703.0,74698.0,0.0
74716.0,74703.0,1.0
74733.0,73417.0,1.0
74734.0,74733.0,1.0
74735.0,74734.0,1.0
74739.0,74735.0,1.0
74740.0,74734.0,1.0
74741.0,74740.0,1.0
74754.0,74700.0,0.0
74763.0,74734.0,1.0
74795.0,74670.0,1.0
74796.0,73391.0,0.0
74825.0,73988.0,1.0
74908.0,74176.0,1.0
74909.0,74908.0,0.0
74923.0,74908.0,1.0
74959.0,74734.0,0.0
75038.0,74536.0,1.0
75040.0,75038.0,1.0
75043.0,75038.0,0.0
75059.0,75038.0,0.0
75072.0,74268.0,0.0
75124.0,75038.0,0.0
75157.0,74176.0,0.0
75168.0,75072.0,0.0
75197.0,74617.0,0.0
75248.0,75072.0,1.0
75280.0,74796.0,1.0
75318.0,74176.0,0.0
75342.0,75280.0,1.0
75343.0,75342.0,0.0
75378.0,75342.0,1.0
75382.0,75378.0,0.0
75392.0,74496.0,0.0
75405.0,75038.0,1.0
75408.0,75405.0,1.0
75410.0,75408.0,1.0
75438.0,75342.0,1.0
75445.0,74176.0,1.0
75446.0,75445.0,0.0
75508.0,75445.0,0.0
75556.0,74617.0,0.0
75594.0,75556.0,1.0
75628.0,75342.0,1.0
75645.0,75280.0,1.0
75649.0,75645.0,1.0
75675.0,75408.0,1.0
75679.0,75675.0,1.0
75692.0,75679.0,0.0
75695.0,75692.0,1.0
75708.0,75649.0,0.0
75709.0,75708.0,0.0
75718.0,75679.0,1.0
75731.0,75718.0,1.0
75737.0,75649.0,0.0
75746.0,75408.0,0.0
75748.0,75737.0,0.0
75761.0,75746.0,0.0
75767.0,75731.0,0.0
75777.0,75748.0,1.0
75787.0,75767.0,1.0
75811.0,75777.0,0.0
75834.0,75628.0,1.0
75835.0,75342.0,1.0
75836.0,75835.0,1.0
75838.0,75835.0,1.0
75839.0,75838.0,1.0
75840.0,75835.0,1.0
75841.0,75840.0,1.0
75843.0,75835.0,1.0
75844.0,75840.0,1.0
75845.0,75844.0,1.0
75850.0,75836.0,1.0
75851.0,75845.0,1.0
75852.0,75851.0,1.0
75853.0,75851.0,1.0
75856.0,75851.0,1.0
75857.0,75852.0,1.0
75860.0,75853.0,1.0
75868.0,75851.0,1.0
75869.0,75868.0,1.0
75872.0,75869.0,1.0
75873.0,75869.0,1.0
75881.0,75873.0,1.0
75885.0,75881.0,1.0
75886.0,75885.0,1.0
75887.0,75886.0,1.0
75889.0,75887.0,1.0
75890.0,75885.0,1.0
75891.0,75885.0,1.0
75893.0,75886.0,1.0
75896.0,75885.0,1.0
75897.0,75885.0,1.0
75898.0,75885.0,1.0
75900.0,75885.0,1.0
75904.0,75886.0,1.0
75906.0,75885.0,1.0
75910.0,75886.0,1.0
75913.0,75885.0,1.0
75916.0,75853.0,1.0
75922.0,75869.0,1.0
75923.0,75851.0,1.0
75926.0,75886.0,1.0
75927.0,75926.0,1.0
75933.0,75926.0,1.0
75942.0,75926.0,1.0
75943.0,75923.0,1.0
75945.0,75896.0,1.0
75954.0,75869.0,1.0
75962.0,75835.0,1.0
75967.0,75885.0,1.0
75975.0,75967.0,1.0
75977.0,75886.0,1.0
75978.0,75913.0,0.0
75985.0,75886.0,1.0
75989.0,75869.0,1.0
75991.0,75885.0,1.0
75994.0,75991.0,1.0
75995.0,75900.0,1.0
75996.0,75995.0,1.0
75999.0,75885.0,1.0
76000.0,75885.0,1.0
76004.0,75885.0,0.0
76009.0,75767.0,1.0
76012.0,75840.0,1.0
76013.0,76012.0,1.0
76014.0,76013.0,1.0
76016.0,76013.0,1.0
76017.0,76012.0,1.0
76018.0,76012.0,1.0
76019.0,76013.0,1.0
76021.0,76012.0,1.0
76023.0,76021.0,1.0
76025.0,76013.0,1.0
76026.0,76025.0,1.0
76029.0,76013.0,1.0
76030.0,76029.0,1.0
76034.0,76013.0,1.0
76036.0,76012.0,1.0
76037.0,76013.0,1.0
76040.0,76013.0,1.0
76043.0,76013.0,1.0
76046.0,76043.0,1.0
76051.0,76018.0,1.0
76057.0,75927.0,1.0
76059.0,76014.0,1.0
76060.0,76057.0,1.0
76061.0,76060.0,1.0
76064.0,75926.0,1.0
76065.0,76012.0,1.0
76067.0,75885.0,1.0
76070.0,76025.0,1.0
76071.0,76065.0,1.0
76081.0,76013.0,1.0
76082.0,75885.0,1.0
76083.0,76082.0,1.0
76087.0,76083.0,1.0
76091.0,76082.0,1.0
76094.0,76091.0,1.0
76095.0,75994.0,1.0
76099.0,76013.0,1.0
76101.0,76094.0,1.0
76102.0,76101.0,1.0
76105.0,76102.0,1.0
76109.0,76013.0,0.0
76114.0,76013.0,1.0
76123.0,76013.0,1.0
76125.0,75886.0,1.0
76134.0,76013.0,1.0
76143.0,75851.0,1.0
76147.0,76025.0,1.0
76150.0,75885.0,1.0
76158.0,76019.0,0.0
76169.0,76013.0,1.0
76172.0,75889.0,1.0
76178.0,75885.0,1.0
76186.0,75885.0,0.0
76216.0,76013.0,1.0
76217.0,75885.0,1.0
76220.0,76094.0,1.0
76231.0,75869.0,0.0
76234.0,76013.0,1.0
76235.0,76234.0,1.0
76236.0,76235.0,1.0
76237.0,76235.0,1.0
76240.0,76013.0,1.0
76256.0,76043.0,1.0
76257.0,76256.0,0.0
76265.0,76013.0,1.0
76272.0,76012.0,1.0
76312.0,76172.0,1.0
76313.0,76312.0,1.0
76314.0,76313.0,1.0
76315.0,76313.0,1.0
76317.0,76313.0,1.0
76320.0,76313.0,1.0
76324.0,76313.0,1.0
76325.0,76313.0,1.0
76330.0,76313.0,1.0
76331.0,76330.0,1.0
76335.0,76313.0,0.0
76344.0,76313.0,1.0
76345.0,76012.0,1.0
76352.0,76313.0,1.0
76355.0,76325.0,1.0
76361.0,76313.0,1.0
76379.0,76313.0,1.0
76385.0,76361.0,1.0
76393.0,76315.0,1.0
76396.0,76313.0,1.0
76400.0,76313.0,1.0
76416.0,76240.0,0.0
76423.0,76313.0,1.0
76424.0,76313.0,1.0
76434.0,75991.0,1.0
76437.0,76379.0,1.0
76441.0,76434.0,1.0
76460.0,76143.0,1.0
76468.0,76313.0,1.0
76476.0,76393.0,1.0
76477.0,76476.0,0.0
76500.0,76313.0,1.0
76506.0,76313.0,0.0
76516.0,76500.0,0.0
76537.0,76313.0,1.0
76541.0,76537.0,0.0
76552.0,76313.0,1.0
76553.0,76313.0,1.0
76572.0,76477.0,1.0
76573.0,76312.0,1.0
76575.0,76572.0,0.0
76583.0,76313.0,1.0
76587.0,76313.0,1.0
76589.0,76587.0,1.0
76617.0,76587.0,0.0
76620.0,76617.0,0.0
76625.0,76587.0,0.0
76627.0,76587.0,1.0
76645.0,76587.0,1.0
76659.0,76441.0,0.0
76668.0,76313.0,1.0
76698.0,76094.0,1.0
76700.0,76698.0,1.0
76701.0,76700.0,1.0
76702.0,76701.0,1.0
76705.0,76700.0,1.0
76716.0,76701.0,1.0
76718.0,76701.0,1.0
76724.0,76659.0,1.0
76731.0,76700.0,1.0
76736.0,76313.0,1.0
76741.0,76312.0,1.0
76743.0,76741.0,1.0
76744.0,76743.0,1.0
76755.0,76701.0,1.0
76764.0,76755.0,1.0
76771.0,76701.0,1.0
76775.0,76755.0,1.0
76781.0,76755.0,1.0
76787.0,76701.0,1.0
76789.0,76744.0,1.0
76805.0,76781.0,0.0
76811.0,76755.0,1.0
76826.0,76755.0,1.0
76830.0,76755.0,1.0
76831.0,76830.0,1.0
76839.0,76700.0,1.0
76895.0,76705.0,0.0
76897.0,76235.0,1.0
76941.0,76755.0,1.0
76948.0,76718.0,1.0
77003.0,76948.0,1.0
77004.0,77003.0,1.0
77013.0,76755.0,1.0
77085.0,76948.0,1.0
77094.0,77085.0,1.0
77105.0,77085.0,1.0
77147.0,76575.0,0.0
77283.0,76313.0,1.0
77301.0,77283.0,0.0
77364.0,76313.0,0.0
77365.0,77364.0,0.0
77366.0,77365.0,0.0
77374.0,77364.0,1.0
77386.0,77366.0,0.0
77443.0,76313.0,0.0
77500.0,77365.0,1.0
77540.0,77366.0,1.0
77567.0,77500.0,0.0
77568.0,77567.0,0.0
77618.0,76811.0,0.0
77621.0,77618.0,0.0
77625.0,77621.0,1.0
77626.0,76572.0,0.0
77653.0,77625.0,0.0
77681.0,76620.0,0.0
77750.0,76587.0,0.0
77762.0,77750.0,0.0
77787.0,77626.0,1.0
77793.0,76775.0,1.0
77803.0,76736.0,1.0
77806.0,77803.0,0.0
77819.0,77787.0,0.0
77834.0,77787.0,0.0
77885.0,76811.0,0.0
77891.0,77750.0,0.0
78039.0,77568.0,0.0
78084.0,77834.0,0.0
78092.0,77618.0,1.0
78093.0,78092.0,0.0
78094.0,78093.0,0.0
